Angle[degree];Secondary axis[mm];Main axis[mm];Out-of-roundness[-];Collapse[mm]
0.0;21.44790388780811;21.322181140850624;0.00584756962592957;0.6558276847408067
1.0;21.421300148496947;21.203606629031352;0.010125279975143939;0.7113901332756143
2.0;21.39307304282375;21.020842451826265;0.0173130507440691;0.7657089192500237
3.0;21.36390785783677;20.841246907913387;0.024309811624343466;0.8109699160341464
4.0;21.336447378539976;20.6785458095904;0.030600072974398894;0.838269080482057
5.0;21.30545958181036;20.57579080327205;0.033938082722712155;0.8368400894234398
6.0;21.28026942685261;20.546382750345426;0.0341342640235899;0.8225162562380888
7.0;21.25487946862687;20.551967396967417;0.032693584728346735;0.7952717745527735
8.0;21.217872934639686;20.60174030754417;0.028657331492814752;0.7547796100567723
9.0;21.185486544628304;20.68912526649325;0.02308657107604906;0.7010591165766016
10.0;21.164158633712063;20.78523943874374;0.017624148603177774;0.6708153919829485
11.0;21.128421651789566;20.89296628671465;0.010951412329065862;0.64073151994765
12.0;21.08983335973983;20.942271714827125;0.006863332321521207;0.6776248623983747
13.0;21.061523709894804;20.978417487343567;0.00386540570005753;0.7187962908573269
14.0;21.038162681721285;20.983086201373407;0.0025616967603664413;0.7825106382659612
15.0;21.007203301499935;20.965770282843607;0.001927117146805937;0.856870780716406
16.0;20.9755970852817;20.92792652471641;0.0022172353751297807;0.9404248070043693
17.0;20.9588493097706;20.880195340880228;0.003658324134435887;1.0182061128521553
18.0;20.949830077862032;20.819297779647616;0.0060712696843914175;1.086805068131767
19.0;20.929719813556687;20.78630342996626;0.0066705294693221945;1.1139143818458805
20.0;20.902037129591605;20.753225971591355;0.006921449209313934;1.1215261802235617
21.0;20.898693282672163;20.721920709622562;0.008221980141841877;1.1119292826699407
22.0;20.894426329345965;20.673099413122564;0.010294275173181424;1.0890812036289717
23.0;20.874842188333023;20.631951942752753;0.011297220724663718;1.0552472588064674
24.0;20.864803665770587;20.608003182313134;0.011944208532904826;1.0105669229879624
25.0;20.84406400997407;20.58605643510702;0.012000352319397554;0.9748359226765828
26.0;20.833239021375483;20.61569894272481;0.010118143193054648;0.9319306806907051
27.0;20.807714621333005;20.61924568319322;0.00876599712278069;0.925423044813563
28.0;20.780953732889742;20.652102014510216;0.005993103180443055;0.9126913093327573
29.0;20.78374550105687;20.674681197232445;0.005072758317415126;0.9214015462893386
30.0;20.781983383184546;20.72480931400227;0.0026592590317336727;0.9249270366624955
31.0;20.7683727548796;20.75127209217268;0.0007953796607869617;0.9492380735494166
32.0;20.750531742998433;20.78193004777861;-0.0014603862688453758;0.9672018111080902
33.0;20.777963434320178;20.78116703284074;-0.0001490045823518067;0.9949852348568129
34.0;20.795761542598584;20.758187650338414;0.0017476228958218524;1.0138176666210583
35.0;20.800596190814026;20.728067493773004;0.003373427769349878;1.0325367050035297
36.0;20.81192812109444;20.69636647890186;0.005374960101980363;1.0450378739806752
37.0;20.839066197486865;20.66426854026623;0.008130123591657365;1.0585886944976366
38.0;20.861225284488704;20.65066468932433;0.009793516054156924;1.066727311727277
39.0;20.877958645514973;20.63392028388521;0.011350621471151736;1.0748999152201293
40.0;20.893557099562862;20.62401220476075;0.012536971851261073;1.0800046142845403
41.0;20.914705849258294;20.6115475111022;0.014100387821213718;1.082336385674047
42.0;20.927131314195137;20.60262270304625;0.01509342377436679;1.082758079068178
43.0;20.9414198316447;20.592486215621303;0.016229470512716195;1.0785225286905984
44.0;20.9515508600214;20.587502685881734;0.016932473215798365;1.0748268098410634
45.0;20.962162176631445;20.583130653298905;0.01762937317825765;1.0638077430207673
46.0;20.966798887982264;20.58406435973193;0.01780160596513187;1.0533303630752897
47.0;20.97227594078568;20.588998264972158;0.017826868642489318;1.033327208774942
48.0;20.97650171537945;20.59248239299199;0.017861363831974852;1.020926500303318
49.0;20.978760023297568;20.602054645391757;0.017521180367712136;0.9976807995174326
50.0;20.97983923333387;20.604755837971283;0.0174457393191901;0.9868950944174415
51.0;20.981553607199444;20.612955339698612;0.017144105465155005;0.9678054413278758
52.0;20.98531285788618;20.61621465066345;0.01716735847547568;0.9570270420128963
53.0;20.986293381134775;20.622789029055006;0.01690717916650087;0.9407730658099638
54.0;20.991009168410212;20.62333646771971;0.017101055846069853;0.9315288186909143
55.0;20.99586043074133;20.625395281901454;0.0172309371553431;0.9210108813996598
56.0;21.0019532025304;20.624439907417994;0.017558757912205014;0.9128703082742149
57.0;21.00547217670731;20.621282969421927;0.017869265455134165;0.9069933283523923
58.0;21.01134590366731;20.614862394464126;0.01844109345131082;0.9011868046949942
59.0;21.01760546646434;20.604084195677796;0.01923354747844385;0.9000877789654211
60.0;21.023344707417287;20.59536347693197;0.019906103743503198;0.8939696630389804
61.0;21.02657586147302;20.58344622422841;0.020610680802074878;0.8936750079737266
62.0;21.03069787290965;20.575518825326796;0.0211711184922257;0.8850320329756229
63.0;21.035454233298637;20.563966589536808;0.021929657849387413;0.8851891678560762
64.0;21.040405882672623;20.557470210894383;0.02246212426875533;0.8750856631755966
65.0;21.044069412430268;20.5518628070336;0.022893330483565923;0.8707325672156045
66.0;21.0484621064724;20.546696559426707;0.023337932420729905;0.8591505565085811
67.0;21.054921207671754;20.54518871979509;0.023708487808216973;0.8520344164405742
68.0;21.06401694704678;20.540511523252153;0.024349089478819905;0.8418371255067782
69.0;21.074304260153347;20.54112790183134;0.024798900387070045;0.8340511094863388
70.0;21.085751268896313;20.535155264395154;0.025609116488426006;0.8278323918916897
71.0;21.09876598168297;20.53705634231379;0.02612602973810141;0.820061694876216
72.0;21.11364900722466;20.529506735577378;0.02716940798359445;0.8200622349629967
73.0;21.12972373073935;20.53029337069193;0.02788048186267075;0.8152795132050485
74.0;21.146973434697006;20.519610815781274;0.029179656693755007;0.8208921349018112
75.0;21.16546707219689;20.51653262965698;0.030182997327437722;0.8182632345954985
76.0;21.18470512524736;20.50581309708212;0.031576373403034264;0.8244882502442934
77.0;21.20476216075028;20.499052461013896;0.03282370696448302;0.8248216761580593
78.0;21.22634176463258;20.493445821125967;0.034088183418912205;0.8268645568804445
79.0;21.248675441077452;20.484362024083342;0.035549461255539996;0.8268558211184143
80.0;21.27137514480541;20.486362520143402;0.03651221510055857;0.8222309518344062
81.0;21.29368322997383;20.47808427268458;0.03793483522275582;0.821075126871655
82.0;21.31629713558342;20.484560601257556;0.03868542020120293;0.8122584422134125
83.0;21.337684929848173;20.480502280324085;0.03986896044298083;0.807799028104597
84.0;21.371972996018442;20.48482889042116;0.04126251653940852;0.7989065359536198
85.0;21.395801359521066;20.4910973565096;0.04207925595402173;0.7863910677700972
86.0;21.40263410682261;20.494169641288245;0.04225416118764489;0.7763019489979115
87.0;21.432834118603495;20.503654498860993;0.043217656732209404;0.7594023426556049
88.0;21.465209543709275;20.51250398025465;0.04431188667230814;0.7382526379889427
88.71;21.477593231936424;20.529377503874464;0.044103057119160946;0.7167193241384737
