Time [s];Force [kN]
0.0;0.0
0.049499999732;0.0
0.099500000477;0.0
0.1494999975;0.0
0.19949999452;0.0
0.24950000644;0.0
0.29949998856;0.0
0.34950000048;0.0
0.3995000124;0.0
0.44949999452;0.0
0.49950000644;-0.050534561276
0.55000001192;-0.37337955832
0.60000002384;-0.86766946316
0.64999997616;-1.2942847013
0.69999998808;-1.6098744869
0.75;-1.8370070457
0.80000001192;-2.0644600391
0.85000002384;-2.1900053024
0.89999997616;-2.2077524662
0.94999998808;-1.9301825762
1.0;-1.576800704
1.0499999523;-1.2195609808
1.1000000238;-0.90434008837
1.1499999762;-0.52956914902
1.2000000477;-0.35980296135
1.25;-0.080210469663
1.2999999523;-9.8607626569e-05
1.3500000238;0.0
1.3999999762;0.0
1.4500000477;0.0
1.5;0.0
1.5499999523;0.0
1.6000000238;0.0
1.6499999762;0.0
1.7000000477;0.0
1.75;0.0
1.7999999523;-0.0033716796897
1.8500000238;-0.26575782895
1.8999999762;-0.52275389433
1.9500000477;-1.0366864204
2.0;-1.4710841179
2.0499999523;-1.7918567657
2.0999999046;-1.8033914566
2.1500000954;-1.5028299093
2.2000000477;-1.2151333094
2.25;-0.90304863453
2.2999999523;-0.75707638264
2.3499999046;-0.70578795671
2.4000000954;-0.62981700897
2.4500000477;-0.42048153281
2.4995000362;-0.1425024122
2.5494999886;-0.14790183306
2.5994999409;0.0
2.6494998932;0.0
2.6995000839;0.0
2.7495000362;0.0
2.7994999886;0.0
2.8494999409;0.0
2.8994998932;0.0
2.9495000839;0.0
2.9995000362;0.0
3.0494999886;0.0
3.0994999409;-0.077599868178
3.1494998932;-0.16363570094
3.1995000839;-0.54703873396
3.2495000362;-0.70751786232
3.2994999886;-0.93026584387
3.3494999409;-0.99179190397
3.3994998932;-1.1246397495
3.4495000839;-1.1697947979
3.4995000362;-1.1639909744
3.5494999886;-1.0508565903
3.5994999409;-0.88904392719
3.6494998932;-0.79624450207
3.6995000839;-0.49186134338
3.7495000362;-0.33418622613
3.7994999886;-0.10559029877
3.8494999409;0.0
3.8994998932;0.0
3.9495000839;0.0
3.9995000362;0.0
4.0494999886;0.0
4.0995001793;0.0
4.1494998932;0.0
4.1995000839;0.0
4.2494997978;0.0
4.2994999886;-0.00016731438518
4.3495001793;-0.12414433062
4.3994998932;-0.17570737004
4.4495000839;-0.40698701143
4.4994997978;-0.54623359442
4.5494999886;-0.75114363432
4.5995001793;-0.86317884922
4.6494998932;-0.97980481386
4.6995000839;-0.99501764774
4.7494997978;-1.0555994511
4.7994999886;-0.96497237682
4.8495001793;-0.92780035734
4.8994998932;-0.78096359968
4.9499998093;-0.62767553329
5.0;-0.47230497003
5.0500001907;-0.30098709464
5.0999999046;-0.1056830734
5.1500000954;-0.030262425542
5.1999998093;-0.0036009771284
5.25;0.0
5.3000001907;0.0
5.3499999046;0.0
5.4000000954;0.0
5.4499998093;0.0
5.5;-7.131168968e-05
5.5500001907;-0.0596623905
5.5999999046;-0.11693775654
5.6500000954;-0.33409592509
5.6999998093;-0.51226788759
5.75;-0.67860382795
5.8000001907;-0.83080852032
5.8499999046;-1.0034279823
5.9000000954;-1.094415307
5.9499998093;-1.160921216
6.0;-1.1766775846
6.0500001907;-1.1696643829
6.0999999046;-1.0755050182
6.1500000954;-0.97307860851
6.1999998093;-0.81593930721
6.25;-0.65319806337
6.3000001907;-0.47887116671
6.3499999046;-0.32492664456
6.4000000954;-0.20078352094
6.4499998093;-0.091794244945
6.5;-0.012679375708
6.5500001907;0.0
6.5999999046;0.0
6.6500000954;0.0
6.6999998093;-0.017200304195
6.75;-0.029740629718
6.8000001907;-0.1014719829
6.8499999046;-0.19518989325
6.9000000954;-0.3058680594
6.9499998093;-0.45053073764
7.0;-0.61642438173
7.0500001907;-0.76291233301
7.0999999046;-0.89384400845
7.1500000954;-0.96674597263
7.1999998093;-0.98410314322
7.25;-1.0189988613
7.3000001907;-0.92483174801
7.3499999046;-0.85336565971
7.4000000954;-0.71679240465
7.4499998093;-0.59317469597
7.5;-0.40792763233
7.5500001907;-0.30566769838
7.5999999046;-0.11484507471
7.6500000954;-0.052587021142
7.6999998093;-0.006475857459
7.75;0.0
7.8000001907;0.0
7.8499999046;0.0
7.9000000954;0.0
7.9499998093;-0.0056550162844
8.0;-0.12424942106
8.0500001907;-0.17106069624
8.1000003815;-0.37433028221
8.1499996185;-0.5169275403
8.1999998093;-0.71150541306
8.25;-0.82802778482
8.3000001907;-0.95733946562
8.3500003815;-1.0513758659
8.3999996185;-1.1102164984
8.4499998093;-1.1082934141
8.5;-1.0926392078
8.5500001907;-1.0047081709
8.6000003815;-0.91350120306
8.6499996185;-0.78136730194
8.6999998093;-0.62803936005
8.75;-0.48348665237
8.8000001907;-0.3376288116
8.8500003815;-0.19857555628
8.8999996185;-0.11356856674
8.9499998093;-0.04031169787
9.0;-0.011025044136
9.0500001907;-0.035689756274
9.1000003815;-0.053587656468
9.1499996185;-0.12079394609
9.1999998093;-0.22648376226
9.25;-0.3943195641
9.3000001907;-0.49433854222
9.3500003815;-0.71600264311
9.3999996185;-0.83057409525
9.4495000839;-0.9994173646
9.4995002747;-1.1122385263
9.5495004654;-1.2150563002
9.5994997025;-1.2690476179
9.6494998932;-1.2893103361
9.6995000839;-1.2724988461
9.7495002747;-1.2301937342
9.7995004654;-1.1371126175
9.8494997025;-1.0135860443
9.8994998932;-0.88743799925
9.9495000839;-0.73740297556
9.9995002747;-0.60277372599
10.049500465;-0.48494786024
10.099499702;-0.37304520607
10.149499893;-0.307554245
10.199500084;-0.27445235848
10.249500275;-0.26956629753
10.299500465;-0.30670467019
10.349499702;-0.36700049043
10.399499893;-0.43991029263
10.449500084;-0.55438840389
10.499500275;-0.67160701752
10.549500465;-0.77581495047
10.599499702;-0.91851645708
10.649499893;-1.0258677006
10.699500084;-1.1132026911
10.749500275;-1.1788828373
10.799500465;-1.1880297661
10.849499702;-1.1739035845
10.899499893;-1.1195014715
10.949500084;-0.99974280596
10.999500275;-0.8818140626
11.049500465;-0.69229972363
11.099499702;-0.55375617743
11.149499893;-0.36009049416
11.199500084;-0.27360382676
11.249500275;-0.14935393631
11.299500465;-0.12210724503
11.349499702;-0.06808643043
11.399499893;-0.058688554913
11.449500084;-0.05012800917
11.499500275;-0.072911195457
11.549500465;-0.10952151567
11.599499702;-0.16610322893
11.649499893;-0.23696556687
11.699500084;-0.32629340887
11.749500275;-0.42556267977
11.799500465;-0.53489404917
11.849499702;-0.63844442368
11.899499893;-0.71565425396
11.949500084;-0.79212993383
11.999500275;-0.81222349405
12.049500465;-0.83583813906
12.099499702;-0.81338506937
12.149499893;-0.76800262928
12.199500084;-0.70401024818
12.249500275;-0.61049878597
12.299500465;-0.52698785067
12.349499702;-0.4212910533
12.399499893;-0.33242017031
12.449500084;-0.25609308481
12.499500275;-0.19077512622
12.549500465;-0.14568334818
12.599499702;-0.1259854883
12.649499893;-0.11595431715
12.699500084;-0.12507027388
12.749500275;-0.16829442978
12.799500465;-0.21587829292
12.849499702;-0.31358057261
12.899499893;-0.41522166133
12.949500084;-0.52087450027
12.999500275;-0.64296531677
13.049500465;-0.73640072346
13.099499702;-0.83261561394
13.149499893;-0.90188574791
13.199500084;-0.94102835655
13.249500275;-0.95372277498
13.299500465;-0.94160234928
13.349499702;-0.90308976173
13.399499893;-0.84816813469
13.449500084;-0.77672481537
13.499500275;-0.68733805418
13.549500465;-0.59707897902
13.599499702;-0.51917147636
13.649499893;-0.43111681938
13.699500084;-0.37700685859
13.749500275;-0.31633812189
13.799500465;-0.30388060212
13.849499702;-0.30162075162
13.899499893;-0.33506992459
13.949500084;-0.39048153162
13.999500275;-0.46856603026
14.049500465;-0.55584818125
14.099499702;-0.66712188721
14.149499893;-0.75891852379
14.199500084;-0.86385804415
14.249500275;-0.95195960999
14.299500465;-1.0284184217
14.349499702;-1.0855877399
14.399499893;-1.1131368876
14.449500084;-1.1279799938
14.499500275;-1.0984865427
14.549500465;-1.0557379723
14.599499702;-0.97902929783
14.649499893;-0.88780874014
14.699500084;-0.78825348616
14.749500275;-0.67220264673
14.799500465;-0.55665767193
14.849499702;-0.45056039095
14.899499893;-0.35308423638
14.949500084;-0.27950552106
14.999500275;-0.21496783197
15.049500465;-0.17655795813
15.099499702;-0.15202377737
15.149499893;-0.14288458228
15.199500084;-0.17241975665
15.249500275;-0.18074952066
15.299500465;-0.246209234
15.349499702;-0.29434406757
15.399499893;-0.37135574222
15.449500084;-0.43738493323
15.499500275;-0.50708377361
15.549500465;-0.55133491755
15.599499702;-0.59468626976
15.649499893;-0.60820454359
15.699500084;-0.59791445732
15.749500275;-0.56135880947
15.799500465;-0.50488388538
15.849499702;-0.44451093674
15.899499893;-0.36633363366
15.949500084;-0.30221381783
15.999500275;-0.23077568412
16.049499512;-0.17394968867
16.099500656;-0.13037361205
16.149499893;-0.10482762009
16.19949913;-0.08610239625
16.249500275;-0.090550228953
16.299499512;-0.090141162276
16.349500656;-0.11399229616
16.399499893;-0.14400105178
16.44949913;-0.18711553514
16.499500275;-0.24659016728
16.549499512;-0.31652450562
16.599500656;-0.40151208639
16.649499893;-0.49012848735
16.69949913;-0.57602661848
16.749500275;-0.63999587297
16.799499512;-0.68577516079
16.849500656;-0.70181274414
16.899499893;-0.69495493174
16.94949913;-0.65035486221
16.999500275;-0.59025061131
17.049499512;-0.50686514378
17.099500656;-0.4192660749
17.149499893;-0.33513244987
17.19949913;-0.26016443968
17.249500275;-0.19526915252
17.299499512;-0.14660555124
17.349500656;-0.12401111424
17.399499893;-0.10196340084
17.44949913;-0.10706907511
17.499500275;-0.12326058
17.549499512;-0.14803096652
17.599500656;-0.20006629825
17.649499893;-0.27914330363
17.69949913;-0.3488265574
17.749500275;-0.45944923162
17.799499512;-0.54374086857
17.849500656;-0.62700837851
17.899499893;-0.69714081287
17.94949913;-0.73904049397
17.999500275;-0.7728202939
18.049499512;-0.7870118022
18.099500656;-0.77077275515
18.149499893;-0.73985081911
18.19949913;-0.68551260233
18.249500275;-0.62153464556
18.299499512;-0.5434820652
18.349500656;-0.46174561977
18.399499893;-0.37917906046
18.44949913;-0.30462658405
18.499500275;-0.2478595674
18.549499512;-0.20723363757
18.599500656;-0.18181669712
18.649499893;-0.16367150843
18.69949913;-0.17790915072
18.749500275;-0.17680943012
18.799499512;-0.21223884821
18.849500656;-0.23051545024
18.899499893;-0.26099249721
18.94949913;-0.30765268207
18.999500275;-0.33558601141
19.049499512;-0.38490226865
19.099500656;-0.40439972281
19.149499893;-0.42570209503
19.19949913;-0.41410177946
19.249500275;-0.38642260432
19.299499512;-0.34232896566
19.349500656;-0.29663088918
19.399999619;-0.27185788751
19.450000763;-0.2370851934
19.5;-0.21529130638
19.549999237;-0.18251879513
19.600000381;-0.14719055593
19.649999619;-0.12268158048
19.700000763;-0.10056640953
19.75;-0.069554843009
19.799999237;-0.054464314133
19.850000381;-0.043454915285
19.899999619;-0.037578251213
19.950000763;-0.041731536388
20.0;-0.05629626289
20.049999237;-0.071873866022
20.100000381;-0.095861978829
20.149999619;-0.12422847003
20.200000763;-0.15434537828
20.25;-0.19072978199
20.299999237;-0.22463984787
20.350000381;-0.25232961774
20.399999619;-0.27829107642
20.450000763;-0.29258143902
20.5;-0.30348351598
20.549999237;-0.29756090045
20.600000381;-0.28845047951
20.649999619;-0.2683172226
20.700000763;-0.24327981472
20.75;-0.21447466314
20.799999237;-0.18473044038
20.850000381;-0.15145014226
20.899999619;-0.12091110647
20.950000763;-0.09130820632
21.0;-0.072575695813
21.049999237;-0.053682774305
21.100000381;-0.044783908874
21.149999619;-0.041743785143
21.200000763;-0.038830835372
21.25;-0.046183962375
21.299999237;-0.059371951967
21.350000381;-0.084323994815
21.399999619;-0.11548218131
21.450000763;-0.14467921853
21.5;-0.17621439695
21.549999237;-0.19809910655
21.600000381;-0.22182448208
21.649999619;-0.24060957134
21.700000763;-0.25182768703
21.75;-0.25046139956
21.799999237;-0.24621923268
21.850000381;-0.22475960851
21.899999619;-0.20241093636
21.950000763;-0.16883720458
22.0;-0.13020500541
22.049999237;-0.079088017344
22.100000381;-0.041553620249
22.149999619;-0.0016648533056
22.200000763;0.0
22.25;0.0
22.299999237;0.0
22.350000381;0.0
22.399999619;0.0
22.450000763;0.0
22.5;-2.3711147151e-05
22.549999237;-0.010036339052
22.600000381;-0.030781390145
22.649999619;-0.051300011575
22.700000763;-0.09264151752
22.75;-0.13339035213
22.799999237;-0.15342192352
22.850000381;-0.19008864462
22.899999619;-0.21610529721
22.950000763;-0.22627596557
23.0;-0.24400085211
23.049999237;-0.24434427917
23.100000381;-0.24146528542
23.149999619;-0.22562098503
23.200000763;-0.21039712429
23.25;-0.17541112006
23.299999237;-0.13673472404
23.350000381;-0.10297956318
23.399999619;-0.072050005198
23.450000763;-0.055113647133
23.5;-0.043093603104
23.549999237;-0.035900589079
23.600000381;-0.033314272761
23.649999619;-0.034141764045
23.700000763;-0.035535551608
23.75;-0.040386289358
23.799999237;-0.050685267895
23.850000381;-0.066020272672
23.899999619;-0.093235760927
23.950000763;-0.11994339526
24.0;-0.15107274055
24.049999237;-0.18271619081
24.100000381;-0.20132547617
24.149999619;-0.2226998657
24.200000763;-0.23114496469
24.25;-0.23219536245
24.299999237;-0.22760991752
24.350000381;-0.21585167944
24.399999619;-0.19900645316
24.450000763;-0.18233607709
24.5;-0.16143701971
24.549999237;-0.1366764456
24.600000381;-0.11504549533
24.649999619;-0.092934377491
24.700000763;-0.077344879508
24.75;-0.061396893114
24.799999237;-0.050452779979
24.850000381;-0.041909441352
24.899999619;-0.038689933717
24.950000763;-0.043856915087
25.0;-0.049886312336
25.049999237;-0.063692554832
25.100000381;-0.081103958189
25.149999619;-0.10842891783
25.200000763;-0.13602507114
25.25;-0.16072577238
25.299999237;-0.17802532017
25.350000381;-0.19029559195
25.399999619;-0.19204676151
25.450000763;-0.18886849284
25.5;-0.18510049582
25.549999237;-0.1682549268
25.600000381;-0.155906111
25.649999619;-0.13352976739
25.700000763;-0.094148620963
25.75;-0.06667239219
25.799999237;-0.023214284331
25.850000381;-0.012584980577
25.899999619;-0.001404286013
25.950000763;0.0
26.0;0.0
26.049999237;0.0
26.100000381;0.0
26.149999619;-0.0019549799617
26.200000763;-0.008186400868
26.25;-0.022187497467
26.299999237;-0.037442918867
26.350000381;-0.068857245147
26.399999619;-0.097020290792
26.450000763;-0.1218515411
26.5;-0.14793203771
26.549999237;-0.17947146297
26.600000381;-0.20700144768
26.649999619;-0.23126275837
26.700000763;-0.25414726138
26.75;-0.27126431465
26.799999237;-0.27457791567
26.850000381;-0.28565999866
26.899999619;-0.26800104976
26.950000763;-0.25784957409
27.0;-0.24173013866
27.049999237;-0.22556352615
27.100000381;-0.21046724916
27.149999619;-0.1947221607
27.200000763;-0.17551626265
27.25;-0.15695478022
27.299999237;-0.13783840835
27.350000381;-0.12565839291
27.399999619;-0.11896402389
27.450000763;-0.12738123536
27.5;-0.14018951356
27.549999237;-0.15906445682
27.600000381;-0.1843778789
27.649999619;-0.207095474
27.700000763;-0.23363351822
27.75;-0.2602712214
27.799999237;-0.28243684769
27.850000381;-0.30431085825
27.899999619;-0.31833547354
27.950000763;-0.33262082934
28.0;-0.33080112934
28.049999237;-0.33070898056
28.100000381;-0.31941348314
28.149999619;-0.3125718236
28.200000763;-0.29556772113
28.25;-0.28286287189
28.299999237;-0.25633078814
28.350000381;-0.23906765878
28.399999619;-0.21755854785
28.450000763;-0.20501253009
28.5;-0.19589917362
28.549999237;-0.19496367872
28.600000381;-0.19738334417
28.649999619;-0.21212217212
28.700000763;-0.22483834624
28.75;-0.24448637664
28.799999237;-0.26320153475
28.850000381;-0.28568708897
28.899999619;-0.30878308415
28.950000763;-0.33611088991
29.0;-0.3692997396
29.049999237;-0.39306724072
29.100000381;-0.41134387255
29.149999619;-0.42100051045
29.200000763;-0.42677199841
29.25;-0.4337965548
29.299999237;-0.43612599373
29.350000381;-0.43353769183
29.399999619;-0.40578883886
29.450000763;-0.37650582194
29.5;-0.32641860843
29.549999237;-0.292144835
29.600000381;-0.25751432776
29.649999619;-0.2260043174
29.700000763;-0.21749800444
29.75;-0.18140739202
29.799999237;-0.18465715647
29.850000381;-0.16949059069
29.899999619;-0.19432774186
29.950000763;-0.21171531081
30.0;-0.25806212425
30.049999237;-0.30111265182
30.100000381;-0.34712427855
30.149999619;-0.38415557146
30.200000763;-0.42285662889
30.25;-0.4479406774
30.299999237;-0.48291778564
30.350000381;-0.50412398577
30.399999619;-0.52765935659
30.450000763;-0.53815531731
30.5;-0.54134988785
30.549999237;-0.53437381983
30.600000381;-0.53141647577
30.649999619;-0.51772207022
30.700000763;-0.51778429747
30.75;-0.49817311764
30.799999237;-0.49536412954
30.850000381;-0.46955361962
30.899999619;-0.47507998347
30.950000763;-0.47410529852
31.0;-0.5037406683
31.049999237;-0.53486186266
31.100000381;-0.58129364252
31.149999619;-0.61147761345
31.200000763;-0.64598584175
31.25;-0.65986055136
31.299999237;-0.67673230171
31.350000381;-0.69680380821
31.399999619;-0.72973692417
31.450000763;-0.76538354158
31.5;-0.81242662668
31.549999237;-0.83672320843
31.600000381;-0.86218416691
31.649999619;-0.86759799719
31.700000763;-0.8721986413
31.75;-0.87470287085
31.799999237;-0.87350821495
31.850000381;-0.87296569347
31.899999619;-0.86802226305
31.950000763;-0.86210376024
32.0;-0.8585870862
32.049999237;-0.85289543867
32.099998474;-0.84971702099
32.150001526;-0.85200965405
32.200000763;-0.85267978907
32.25;-0.8627717495
32.299999237;-0.8707652688
32.349998474;-0.89359927177
32.400001526;-0.91511797905
32.450000763;-0.95248776674
32.5;-0.98865163326
32.549999237;-1.0289186239
32.599998474;-1.0500985384
32.650001526;-1.0696518421
32.700000763;-1.0796109438
32.75;-1.0872242451
32.799999237;-1.1071434021
32.849998474;-1.1206707954
32.900001526;-1.1199663877
32.950000763;-1.1204286814
33.0;-1.1029090881
33.049999237;-1.0755648613
33.099998474;-1.0505223274
33.150001526;-1.0236564875
33.200000763;-1.0100017786
33.25;-0.99738317728
33.299999237;-0.99178856611
33.349998474;-0.98220610619
33.400001526;-0.97348487377
33.450000763;-0.96513342857
33.5;-0.96620666981
33.549999237;-0.96641027927
33.599998474;-0.97733950615
33.650001526;-0.99093979597
33.700000763;-1.0116381645
33.75;-1.0361106396
33.799999237;-1.0578402281
33.849998474;-1.0768498182
33.900001526;-1.0906794071
33.950000763;-1.0933431387
34.0;-1.0977150202
34.049999237;-1.089204073
34.099998474;-1.0867542028
34.150001526;-1.0709928274
34.200000763;-1.0645000935
34.25;-1.0368447304
34.299999237;-1.0181474686
34.349998474;-0.99717593193
34.400001526;-0.98265868425
34.450000763;-0.97563582659
34.5;-0.96202963591
34.549999237;-0.9566052556
34.599998474;-0.9583773613
34.650001526;-0.96857631207
34.700000763;-0.99060422182
34.75;-1.0071839094
34.799999237;-1.0320249796
34.849998474;-1.0557796955
34.900001526;-1.0852178335
34.950000763;-1.1210131645
35.0;-1.1546725035
35.049999237;-1.1918483973
35.099998474;-1.2236495018
35.150001526;-1.2496256828
35.200000763;-1.272084713
35.25;-1.2863173485
35.299999237;-1.2923859358
35.349998474;-1.2930868864
35.400001526;-1.2844529152
35.450000763;-1.2797355652
35.5;-1.2780746222
35.549999237;-1.2875714302
35.599998474;-1.2915892601
35.650001526;-1.2944451571
35.700000763;-1.2932776213
35.75;-1.2958997488
35.799999237;-1.3021478653
35.849998474;-1.3076132536
35.900001526;-1.3226515055
35.950000763;-1.3290234804
36.0;-1.348120451
36.049999237;-1.3578822613
36.099998474;-1.3711111546
36.150001526;-1.3788446188
36.200000763;-1.3866770267
36.25;-1.391104579
36.299999237;-1.3986362219
36.349998474;-1.4018759727
36.400001526;-1.4072885513
36.450000763;-1.4080221653
36.5;-1.4086588621
36.549999237;-1.4033387899
36.599998474;-1.3968640566
36.650001526;-1.3802529573
36.700000763;-1.3668526411
36.75;-1.3446501493
36.799999237;-1.3250068426
36.849998474;-1.3084236383
36.900001526;-1.287322998
36.950000763;-1.2753486633
