Angle[degree];Secondary axis[mm];Main axis[mm];Out-of-roundness[-];Collapse[mm]
0.0;21.60643160056869;21.588098173186587;0.0008607242902395866;-0.18130759777356076
1.0;21.592199554285322;21.46354179867239;0.0060402702165695266;-0.13560184230181704
2.0;21.57670358710495;21.28837536950058;0.01353653603776385;-0.10431034358477831
3.0;21.558479746173603;21.110761874303847;0.02101961839764112;-0.08727036070960281
4.0;21.537696065809026;20.925474011998336;0.028742819427731933;-0.0806744505172361
5.0;21.514809915910263;20.78052452486154;0.03447349253749869;-0.08802735840789921
6.0;21.490690540145803;20.65535390799356;0.039217682260668615;-0.11076693604012888
7.0;21.464311377446432;20.58203573163489;0.04142139182213816;-0.13472933128967668
8.0;21.43685104753756;20.533775533380496;0.04239791146277291;-0.16497365014261334
9.0;21.409905131609868;20.535554968733095;0.04104930342144475;-0.17247016420734695
10.0;21.383340391134926;20.566405002243066;0.0383537741263784;-0.18307605803093452
11.0;21.357964483926924;20.619235995625807;0.0346820886526346;-0.17592556191522135
12.0;21.33381672654024;20.70547824158416;0.029499459387609308;-0.15928526103132157
13.0;21.3121403727843;20.811718522145352;0.023493983598072633;-0.1287322148212553
14.0;21.291770473208217;20.92048357855859;0.017431309607963782;-0.08199977863126406
15.0;21.273337271606778;21.02429879200056;0.011691947399352892;-0.035760904544979155
16.0;21.25843672992721;21.056979047964003;0.009458107134422957;0.041216066324103906
17.0;21.24910252881549;21.082441237781993;0.007824473757441268;0.1108698325349664
18.0;21.240704017784708;21.071454519100964;0.007945985853696894;0.18756800552800001
19.0;21.23823012619531;21.053283892198937;0.008682921783867339;0.2530517830129284
20.0;21.23751808775232;21.00448174509454;0.01094067336421501;0.30866685122011006
21.0;21.242987514374402;20.9486253461946;0.013819820102338126;0.3512090311457712
22.0;21.250395329137984;20.875915862847343;0.017581195600499568;0.3806672724022917
23.0;21.256194454130785;20.803220869099388;0.021266365494431814;0.38095327332484885
24.0;21.25548808231777;20.706417805577363;0.025777947264807755;0.3659074197635661
25.0;21.25577036051242;20.614677074352997;0.030098276345512896;0.34134708940371894
26.0;21.251289293225916;20.527664339282616;0.03397300253254931;0.3071948351685023
27.0;21.239960752842435;20.480878560122605;0.035637661630038994;0.2697632787818023
28.0;21.22956490226089;20.44554074968448;0.03680864566086435;0.23084468374388933
29.0;21.210443832648895;20.46214385341737;0.03513145442401528;0.19481709406219494
30.0;21.19438625346828;20.4779393134441;0.03363600657390519;0.17294181408589537
31.0;21.179907879995326;20.574242614963833;0.028434988968614728;0.1574106521088794
32.0;21.18166761145514;20.663701631382946;0.02431765164658189;0.16029777217308805
33.0;21.18183518378941;20.767430621631668;0.019455613246842342;0.1624853489647009
34.0;21.186040759125397;20.81719641059953;0.017316636081026703;0.1978576223705346
35.0;21.19822793313199;20.856346780555434;0.016050758336927456;0.22695640351339819
36.0;21.219525453988595;20.853933252740713;0.017163953110229193;0.2819816364710661
37.0;21.242413262434425;20.849039141141112;0.01846826860531985;0.32924672313514947
38.0;21.2644537014754;20.804233515017486;0.02160658152384571;0.39098149985144204
39.0;21.2918441420438;20.751253028800225;0.025379864471529363;0.4470631338875748
40.0;21.31843226193304;20.687496252056633;0.029621408914385323;0.504485566999854
41.0;21.348370451836935;20.624965323704547;0.03396268207194309;0.5533501528799647
42.0;21.37071756574627;20.582458338375808;0.03700747546340189;0.5929686709325424
43.0;21.390623255359813;20.541977774208984;0.03984251085215159;0.6266736562669948
44.0;21.408284211916396;20.518540990488283;0.041771982226671944;0.6494474803824062
45.0;21.422636496287247;20.49991796452068;0.04332011886228011;0.6618482809574431
46.0;21.43331984563524;20.496947600487772;0.04396113826983414;0.6638607179817839
47.0;21.440329355724916;20.493733140981888;0.044441136842395694;0.6610338988989497
48.0;21.44455548820772;20.50498465073607;0.0441113069235516;0.6528765053332819
49.0;21.44721818619657;20.515434184993605;0.04374572775600767;0.6400183460949265
50.0;21.4487905625609;20.533082904418333;0.042990969865848314;0.6290112220605835
51.0;21.44870720052116;20.55356447684975;0.042025479984573184;0.610157962992929
52.0;21.447844276532084;20.567582519298323;0.041326843062617885;0.6037056472886349
53.0;21.44706289360289;20.581493044007473;0.0406370821406299;0.5914847664255163
54.0;21.446099240144616;20.590357862540987;0.04017565153068678;0.5859827434045215
55.0;21.445010259977344;20.591480277783795;0.0400718301499319;0.5828350550891486
56.0;21.44428188988369;20.595019383958046;0.03987147915143868;0.5810579129638782
57.0;21.443350589740298;20.585208961673576;0.04028833934585549;0.5872147689273248
58.0;21.44233969751152;20.587119996858654;0.04015115965506419;0.5872246017590115
59.0;21.441701875809855;20.574831277607093;0.04069815015036443;0.5975701980612556
60.0;21.44175516034625;20.572784305241925;0.040796753760766476;0.6028017086532031
61.0;21.44130558022176;20.564782569584782;0.04115131505337917;0.6096062534515454
62.0;21.43979268494944;20.56141339271959;0.04123846442393653;0.6157811679991312
63.0;21.44153782851843;20.560571564147793;0.04135991851505343;0.616298749422306
64.0;21.440414538075856;20.558159968637955;0.04142040232102821;0.6224872021636045
65.0;21.44000333695181;20.559908751429678;0.04131899462545228;0.6211689487493501
66.0;21.44030680092348;20.560365374361716;0.04131180406393259;0.6230560614660163
67.0;21.4411997604662;20.56206310415587;0.04127402142302017;0.6214312329820189
68.0;21.441877442800745;20.568645915801458;0.040996785305130866;0.617247890057385
69.0;21.440954042566148;20.571820744144453;0.04080438020759127;0.6147481977822267
70.0;21.445148885020004;20.58335981934007;0.040459580548353635;0.605116092620321
71.0;21.442419804259384;20.589372511608126;0.04004916866907315;0.6020009567925442
72.0;21.447301858094896;20.601186059721663;0.039723746402499226;0.593425114433046
73.0;21.451677868283088;20.612844999980513;0.03938182480293778;0.5855456168109114
74.0;21.450328140552383;20.619568906952495;0.03900278092018255;0.5802867791308657
75.0;21.448569418518822;20.633794655738125;0.0382523362807839;0.5696625214578432
76.0;21.458371178625896;20.632417772984486;0.03877715519443241;0.5720356497115375
77.0;21.459699546272702;20.639243358432825;0.038519069851637416;0.5691874700476021
78.0;21.446653442102107;20.637776780232528;0.03797543013472203;0.5694222292353501
79.0;21.453443406209267;20.641823122224043;0.03810423868475231;0.5702936343087259
80.0;21.464487563610387;20.644997458362653;0.03847371386139597;0.5660613808653778
81.0;21.456543542019332;20.648407529920167;0.03794065784503124;0.5688386978157993
82.0;21.43774180687814;20.651703675254623;0.03690319866777075;0.5649254370272558
83.0;21.460761738113366;20.662928602756043;0.03745695471161138;0.5598065943921
84.0;21.464992953643524;20.669540968985192;0.037345163598982704;0.5552431461149752
85.0;21.45184962437782;20.68561495100012;0.0359734588440236;0.5445958858348945
86.0;21.45339552742601;20.69429681895579;0.03563843701738118;0.538086899118511
87.0;21.46985739317254;20.706761904482466;0.03582607928122409;0.5277780480888339
88.0;21.469197566414184;20.725976728521566;0.034892997084160486;0.511797710612008
88.99;21.462746637328337;20.737607882269984;0.034044073007434415;0.49917024188074777
89.0;21.46266304810019;20.737806554638723;0.034030821289270714;0.4989819513322118
90.0;21.47193826835381;20.755851257802323;0.03361910847659562;0.47854272663963116
90.06;21.47235479266788;20.756780494793002;0.03359503745891441;0.4772536171584889
