Angle[degree];Secondary axis[mm];Main axis[mm];Out-of-roundness[-];Collapse[mm]
0.0;21.661116370551696;20.01158696474725;0.0789248519523659;0.2325689217376521
1.0;21.66971704336676;20.029491709046017;0.07847968106797812;0.28581788434934907
2.0;21.675539991792256;20.05208793987403;0.07767713167072846;0.3407862516073834
3.0;21.677651526523945;20.147244517092687;0.07322521576226114;0.39267496839405425
4.0;21.67888695769041;20.246033455475818;0.06855758383801873;0.43266056716029766
5.0;21.67692089848773;20.349547439941645;0.06351069179646338;0.4602480975080141
6.0;21.682947937978682;20.441132716856938;0.05941699622592077;0.4713294663119001
7.0;21.688473593826828;20.481705087621883;0.0577401199141122;0.4654004491824324
8.0;21.68878509464865;20.52670337461904;0.05560199617366563;0.42810320789725154
9.0;21.68852163142421;20.52341967335854;0.0557465051706062;0.38018330238841713
10.0;21.68915685972798;20.485111645650125;0.05760981885539976;0.32119109584514405
11.0;21.691232070610113;20.31175541398108;0.0660036677812935;0.26680569054038017
12.0;21.690878682139008;20.130400695514645;0.07466401849877337;0.20714142380774092
13.0;21.688625497481688;19.923932705276197;0.08443506182801391;0.1588823775514996
14.0;21.686591585512154;19.84880997133203;0.08793213464976667;0.110934784741481
15.0;21.685228724409903;19.771774927569634;0.09155281324594589;0.07921887314794418
16.0;21.685288549613226;19.760030469256716;0.0921176115003115;0.06010391721591901
17.0;21.687597243421763;19.781108738182226;0.091219545705241;0.04656611330083393
18.0;21.691654207588293;19.859791195344002;0.0876489479542723;0.05940925123802998
19.0;21.695743113430005;19.981842735369025;0.08200480277803734;0.07658648407789315
20.0;21.69844985870769;20.082558887969576;0.07731535745158441;0.1264075735391188
21.0;21.701990586469606;20.212037769962834;0.0712896084453001;0.16890812539048028
22.0;21.705178978724;20.289361796721927;0.06774244889962071;0.252934647009468
23.0;21.70591169978683;20.347569667635856;0.06499244172971176;0.32947832730391013
24.0;21.701501554560856;20.368921131619224;0.06375982884888191;0.4058551062561122
25.0;21.69463142058359;20.339300767628316;0.06484835660073082;0.457009998590145
26.0;21.68507281316063;20.305209233752063;0.06602218083294582;0.47797966697769567
27.0;21.673334724664997;20.238794354115125;0.06863829524162067;0.4819693932784048
28.0;21.657624762231947;20.133430900361944;0.07292793597464131;0.4708575865347271
29.0;21.637982094967803;19.96248154438657;0.08016749045843223;0.44287492307050513
30.0;21.61767603180843;19.797821908085282;0.08707435998675343;0.3999563473767367
31.0;21.594154672442762;19.627076904226183;0.09411855350318564;0.35420621451023493
32.0;21.57167629567042;19.583057395021946;0.09514922969609932;0.296650474119005
33.0;21.545097927495306;19.542506675842777;0.0958177632369631;0.24749828530953977
34.0;21.513595817649275;19.57688053881112;0.09266580281522267;0.19178323112421936
35.0;21.495621737799596;19.63018430263805;0.08925537967280124;0.16153044344915202
36.0;21.492104063653827;19.776488085727866;0.08208688889597897;0.12111660866916907
37.0;21.48071809138481;19.89902181349806;0.07567924774577747;0.13521543135550473
38.0;21.470749411781235;20.02664675394674;0.06909582094901892;0.1485882354392345
39.0;21.47289304526504;20.08844982713298;0.06624130230296935;0.18990965035583685
40.0;21.486922734041165;20.136977944192655;0.06459065980136416;0.23072677393975027
41.0;21.50121350996715;20.12445058339117;0.06587382423808524;0.305824772261893
42.0;21.51131228431241;20.105221209319573;0.06727708492788693;0.3803108984931711
43.0;21.510796442198057;20.041378581141633;0.07030707469169495;0.4589262939839358
44.0;21.51709986117484;19.984207624499803;0.07334412615670044;0.5217480772571008
45.0;21.523697603858373;19.92249638859875;0.0766124983377811;0.5682437299867473
46.0;21.52194712781275;19.864037777066724;0.07932580625579082;0.6045009629665685
47.0;21.51932596125087;19.8077330964181;0.08189439544654403;0.6288756547272172
48.0;21.516733699201836;19.760663149292924;0.08402251434970874;0.6378420575307118
49.0;21.511148148407933;19.73747303082548;0.08486483816183986;0.6337514156585229
50.0;21.501795371324498;19.71312489318561;0.0855823195281764;0.6263124285714738
51.0;21.48674342014248;19.74089628423521;0.08353335578503697;0.6085717555855652
52.0;21.47557301043934;19.75976822662471;0.08209592267055645;0.5981415493242608
53.0;21.455835737351237;19.799257511386195;0.0792621160748824;0.5844293650291519
54.0;21.44253362753593;19.833765312088875;0.07697456054770598;0.5708815715552333
55.0;21.426239744435733;19.869926327936508;0.07446475677029789;0.5579828107627591
56.0;21.408517321761174;19.900797907707627;0.07213968488294482;0.5456060866894319
57.0;21.38853438191984;19.924828313079143;0.07003378319811947;0.5412734544548243
58.0;21.382593710061577;19.950577381574256;0.06851752767881923;0.5289048668130647
59.0;21.376758838660066;19.964190169076012;0.06758701768344758;0.5263664948673892
60.0;21.370009636211265;19.97639904245492;0.06667993271561465;0.5197991953169208
61.0;21.363104741212325;19.981999381008446;0.06608159618200378;0.5228772323192885
62.0;21.360526394536613;19.982396054499198;0.06593925071949358;0.5245346260068047
63.0;21.36305879030195;19.982217995647535;0.06606893754327342;0.5369873064691149
64.0;21.36284218716758;19.970854854526277;0.06660226471967959;0.5539219197222209
65.0;21.36293926224144;19.97050916820647;0.06662344947535746;0.5675554120714779
66.0;21.36356796330587;19.95906815919424;0.06720094756514977;0.5854172030878786
67.0;21.365905131184455;19.95997786039705;0.06726924740609594;0.597326988708069
68.0;21.368129132553825;19.952325788930285;0.06774178677624597;0.6131239634542567
69.0;21.370156152176747;19.96022984005795;0.06746058909659325;0.6183330870713775
70.0;21.372673325194462;19.969027248605546;0.06716009935832137;0.6187213102445313
71.0;21.375223929939814;19.982453564127955;0.06663973042162008;0.6151142486078669
72.0;21.378142089054677;20.000137358518685;0.065933240695502;0.6056555185315275
73.0;21.382203302270426;20.02055774490787;0.06515050513696446;0.5946454420771872
74.0;21.386806803743163;20.048757827053947;0.06402148213823998;0.5767637006316377
75.0;21.391258987003965;20.06502978217766;0.06345594281465575;0.5689553669144161
76.0;21.394975903037974;20.094671992883345;0.0622154980935229;0.5549745534632109
77.0;21.398663348519555;20.104900226816458;0.06190254170828219;0.5564263760264225
78.0;21.402180212571906;20.11924519923404;0.061384450398940964;0.5607586371139632
79.0;21.405733163810886;20.127057859494396;0.061180636570166994;0.5647872404367789
80.0;21.405977235438954;20.134348266970456;0.060843491314282204;0.5755918946064114
81.0;21.404592293627147;20.140053012993295;0.06050427180066275;0.5828964203076694
82.0;21.404481746920652;20.143260454042185;0.06034551640566829;0.5976173112978742
83.0;21.401928857702487;20.150194234811828;0.05989160875074924;0.6052957055273396
84.0;21.400544839176945;20.159855773765926;0.0593631131775607;0.6110500201395084
85.0;21.39541473843216;20.167108306335432;0.058770642684053895;0.6221508250528487
86.0;21.394389912205114;20.177788348430244;0.05821060113755356;0.6265058400452546
87.0;21.387734717838008;20.163809255182574;0.05856102692131261;0.6567097590253752
87.5;21.38901268418116;20.15912871849858;0.05884612275993215;0.6669563826515557
88.0;21.390632298932843;20.148728197731156;0.05942124886132474;0.6812284849163177
89.0;21.390509817649303;20.137157255659652;0.05996902210476799;0.7016394725335502
90.0;21.381189354416975;20.135008492880406;0.059625878542419575;0.7064646258097369
90.03;21.380880065593253;20.13506136204669;0.05960855040892638;0.7063875192987936
