Angle[degree];Secondary axis[mm];Main axis[mm];Out-of-roundness[-];Collapse[mm]
0.0;21.469045360568245;20.709024125954816;0.03585005823648251;0.8560973226261268
1.0;21.46201269824371;20.707963560860684;0.03556835553693528;0.93563414794788
2.0;21.461846780633522;20.66935134661336;0.03738186009529061;1.00290269599936
3.0;21.46128352302084;20.630606844933112;0.03918286217394938;1.0554492862557936
4.0;21.45331358916698;20.58209880698838;0.041095036895217034;1.0842603369514592
5.0;21.447349858863646;20.53991045676004;0.04280374538224555;1.0931382754827155
6.0;21.442584829665634;20.470235067321955;0.04586555482753204;1.0928732172295597
7.0;21.43627566026609;20.383153033359637;0.049675595608795;1.0850282923395866
8.0;21.42845658453593;20.29431079256595;0.05349744301745195;1.0791073471834807
9.0;21.42130965776412;20.205596257120042;0.057344971728494204;1.0701027726817642
10.0;21.412404161927476;20.164679336489236;0.05885494459614341;1.0575490271442547
11.0;21.405853725872298;20.139947617034508;0.05971255230366933;1.047199104846527
12.0;21.400321603026995;20.155278065308565;0.05872846876030333;1.0291248740937604
13.0;21.394640355503057;20.161568136760454;0.05816378390295296;1.0257800298652313
14.0;21.390816590475772;20.20640493883333;0.05586847413407746;1.0164580818391187
15.0;21.38759881129559;20.235713588953644;0.05433420860103518;1.0305442118006383
16.0;21.38394492215418;20.281768369147585;0.051989460047480826;1.042440871417348
17.0;21.380308259107125;20.314047003280777;0.050295342255959795;1.0643691669818836
18.0;21.377199642203152;20.330057763377386;0.04939348485027197;1.0894919812249668
19.0;21.37323949722854;20.332575845265023;0.049087908111486625;1.1197317303141574
20.0;21.36710721620954;20.323883303912815;0.04920867510833607;1.1495150067930737
21.0;21.3595216860012;20.31265294121542;0.04938060116914072;1.1741282504573434
22.0;21.350462161093432;20.294292207654333;0.049819337426372595;1.189834738718524
23.0;21.33912418378649;20.27642150309738;0.05012748493816541;1.194129270642101
24.0;21.325438501046676;20.2494105261028;0.05075603655395645;1.1927451866101393
25.0;21.308522064851715;20.22494090016219;0.05111231908912862;1.179423882257396
26.0;21.28826259242136;20.194662520503353;0.05158490905273622;1.1539038139186815
27.0;21.26838602225955;20.16407668222574;0.05209006320914189;1.1168509129495519
28.0;21.244644829804017;20.137401164419064;0.0522284747823091;1.0801913762240645
29.0;21.222196189843828;20.11817165074283;0.05207662920287724;1.0332119568070297
30.0;21.195678126124584;20.117872487134772;0.0508398886315949;0.9947678212869562
31.0;21.16366062054088;20.12932329960642;0.04878949627049349;0.9501948980121853
32.0;21.139138541869457;20.15661262623587;0.04634556205818809;0.9174166970119728
33.0;21.1320310724862;20.183816500806156;0.04472710243773792;0.8822864087486337
34.0;21.11490558371274;20.22375742266643;0.042035290615391976;0.8703538859109372
35.0;21.085866102270693;20.263271444592842;0.03880163479612502;0.8567745754780347
36.0;21.075501802492703;20.295470776602503;0.03679391631557545;0.8540713785111436
37.0;21.08079038825192;20.32276852323195;0.035755748349998576;0.8494449791399887
38.0;21.07445893357449;20.30663358564792;0.03621817678898921;0.852522374345611
39.0;21.054181168502794;20.283449605684083;0.03635526239710898;0.8547430019938886
40.0;21.05590618536243;20.254273316578253;0.037812871169065024;0.8579520380965775
41.0;21.065408486495272;20.22139579982122;0.039811919182738305;0.8580097365830284
42.0;21.061120039285242;20.210247851615257;0.040135480550471;0.8541001002160655
43.0;21.043011352349815;20.19531463297631;0.03998569431007102;0.8491561057610468
44.0;21.049093781058403;20.195813721371827;0.04024905941917809;0.8372917489074823
45.0;21.055859588712252;20.192549078292437;0.04072219388772713;0.8223725862532234
46.0;21.046939044604983;20.202617827346597;0.03982647251218803;0.797876180378168
47.0;21.030172033533695;20.20522419896343;0.03891263370614467;0.7751910942952378
48.0;21.034787365047187;20.2248712560093;0.038203590048956876;0.7410958543370896
49.0;21.036635576216426;20.236052299951883;0.037763362087950156;0.709651417290182
50.0;21.022753417828454;20.259776454452634;0.03598947940451982;0.6688973958736639
51.0;21.003220773232954;20.274379403544707;0.034379309890955057;0.6333430176749246
52.0;21.013364603757232;20.299579585794444;0.03366910462088624;0.5916280354991699
53.0;21.014054462698013;20.313071269042222;0.033065244983763724;0.5573230538159777
54.0;20.99957069020718;20.33009498801531;0.03157904255622017;0.5223843684544534
55.0;20.98298100582445;20.34199533452017;0.03023517317473012;0.4901590667726339
56.0;20.998928846888774;20.35226814013065;0.030502863526326553;0.4631399171961377
57.0;21.00067219086113;20.35878056714281;0.03027790677916616;0.43766438441151934
58.0;20.987254700716804;20.358905782451693;0.02963909991816561;0.4205161931019177
59.0;20.98073946682699;20.3666788187242;0.028965124910508937;0.39771292119133506
60.0;20.998941752170964;20.365037067604106;0.029901164366361213;0.3856449511150615
61.0;21.002868391466492;20.37185658540742;0.02976470783297505;0.36525151963982694
62.0;20.995685875716617;20.36684125735024;0.029662481998413957;0.35436566668733605
63.0;21.000946897376714;20.37194569735553;0.029669867925527473;0.3342885391708492
64.0;21.014061654468264;20.373247500424156;0.03022708273792962;0.31691554174776826
65.0;21.01923826025093;20.38073669513721;0.030117998354420798;0.2949129498023808
66.0;21.02366562282066;20.384756854915338;0.030137206033269835;0.27303738866727656
67.0;21.032423910796886;20.395207287110484;0.03005738790973597;0.2495835943683744
68.0;21.037555280043954;20.406461308963948;0.029768583541509703;0.22269433629192292
69.0;21.047473503781447;20.416442050655558;0.029765634581409857;0.2014431850989098
70.0;21.054179378514426;20.42739029200045;0.0295655229487725;0.17355062284818246
71.0;21.062046818483367;20.431149558828704;0.029759304700691658;0.16009867480455853
72.0;21.069833894939677;20.43724847316492;0.02983893498937529;0.13951594112822363
73.0;21.078040785320454;20.43940728977708;0.030124221487894995;0.12995562325991017
74.0;21.086694863558343;20.43890126585977;0.030556301778234592;0.11610950125463404
75.0;21.096279811843445;20.441227264371904;0.030898705069412332;0.10861520760162335
76.0;21.106106266884822;20.438176418356527;0.031506124930579985;0.10112595616358533
77.0;21.11632622053027;20.445640735647512;0.03163610777748853;0.09111179674887637
78.0;21.12726215881888;20.44492451363504;0.03218573798036978;0.0829116040483342
79.0;21.137395974311282;20.45494394013207;0.03219113368769876;0.0668446082356624
80.0;21.14796305181798;20.456083789448176;0.0326358142627267;0.05684457952476407
81.0;21.16031459999388;20.466327321060888;0.0327352490062733;0.04118396651077916
82.0;21.17115095193664;20.472946624537556;0.032934166386749175;0.02619121607374808
83.0;21.17999278909592;20.477612195399374;0.03313116008002575;0.012453509184453537
84.0;21.19083091627688;20.489656214318707;0.03307427839425346;-0.007109728017368866
85.0;21.19759152880006;20.491595341693166;0.03330170693900445;-0.01832598596564594
86.0;21.207543770337963;20.499984016535794;0.03337546008500797;-0.03488854964133026
87.0;21.22152214440151;20.50581391744972;0.033759822026027834;-0.05523906586001459
87.5;21.223906884855722;20.513270288066554;0.03352059418816832;-0.06523647553801482
