Time [s];Force [kN]
0.0;0.0
0.049499999732;0.0
0.099500000477;0.0
0.1494999975;0.0
0.19949999452;0.0
0.24950000644;0.0
0.29949998856;0.0
0.34950000048;0.0
0.3995000124;0.0
0.44949999452;0.0
0.49950000644;-0.050594978034
0.55000001192;-0.37381857634
0.60000002384;-0.86914020777
0.64999997616;-1.2934910059
0.69999998808;-1.5851376057
0.75;-1.8522298336
0.80000001192;-2.0456774235
0.85000002384;-2.2047355175
0.89999997616;-2.2157337666
0.94999998808;-1.9309742451
1.0;-1.5735054016
1.0499999523;-1.2225836515
1.1000000238;-0.87958484888
1.1499999762;-0.52546489239
1.2000000477;-0.35074418783
1.25;-0.10177928954
1.2999999523;-0.00017315711011
1.3500000238;0.0
1.3999999762;0.0
1.4500000477;0.0
1.5;0.0
1.5499999523;0.0
1.6000000238;0.0
1.6499999762;0.0
1.7000000477;0.0
1.75;0.0
1.7999999523;-0.0022392517421
1.8500000238;-0.19727507234
1.8999999762;-0.33319541812
1.9500000477;-0.94742465019
2.0;-1.3472369909
2.0499999523;-1.8306776285
2.0999999046;-1.8367277384
2.1500000954;-1.7351077795
2.2000000477;-1.2249206305
2.25;-1.0419080257
2.2999999523;-0.81913805008
2.3499999046;-0.68228077888
2.4000000954;-0.61762100458
2.4500000477;-0.4364926219
2.4995000362;-0.2299401015
2.5494999886;-0.14737957716
2.5994999409;0.0
2.6494998932;-0.0087374104187
2.6995000839;0.0
2.7495000362;0.0
2.7994999886;0.0
2.8494999409;0.0
2.8994998932;0.0
2.9495000839;0.0
2.9995000362;0.0
3.0494999886;0.0
3.0994999409;0.0
3.1494998932;-0.22705356777
3.1995000839;-0.30212047696
3.2495000362;-0.68527168036
3.2994999886;-0.6351801157
3.3494999409;-1.006128788
3.3994998932;-1.0738072395
3.4495000839;-1.1975344419
3.4995000362;-1.2472769022
3.5494999886;-1.1114199162
3.5994999409;-1.0728210211
3.6494998932;-0.88778907061
3.6995000839;-0.76322817802
3.7495000362;-0.49814042449
3.7994999886;-0.21111221611
3.8494999409;-0.074540533125
3.8994998932;-0.0044488767162
3.9495000839;0.0
3.9995000362;0.0
4.0494999886;0.0
4.0995001793;0.0
4.1494998932;0.0
4.1995000839;0.0
4.2494997978;0.0
4.2994999886;0.0
4.3495001793;0.0
4.3994998932;-0.17927074432
4.4495000839;-0.17098128796
4.4994997978;-0.43436512351
4.5494999886;-0.55526924133
4.5995001793;-0.70844596624
4.6494998932;-0.89055126905
4.6995000839;-0.93514502048
4.7494997978;-1.0374667645
4.7994999886;-1.0242544413
4.8495001793;-0.99279719591
4.8994998932;-0.88055425882
4.9499998093;-0.76931923628
5.0;-0.61166405678
5.0500001907;-0.47035753727
5.0999999046;-0.27800247073
5.1500000954;-0.16705282032
5.1999998093;-0.045082051307
5.25;-0.029222887009
5.3000001907;-0.0013634740608
5.3499999046;0.0
5.4000000954;0.0
5.4499998093;0.0
5.5;0.0
5.5500001907;0.0
5.5999999046;-0.046181868762
5.6500000954;-0.1225387454
5.6999998093;-0.28121480346
5.75;-0.45462474227
5.8000001907;-0.63088142872
5.8499999046;-0.85340791941
5.9000000954;-0.95533257723
5.9499998093;-1.1170662642
6.0;-1.1596602201
6.0500001907;-1.2068080902
6.0999999046;-1.1906590462
6.1500000954;-1.1130591631
6.1999998093;-1.0011711121
6.25;-0.84802645445
6.3000001907;-0.69304889441
6.3499999046;-0.55282908678
6.4000000954;-0.36507096887
6.4499998093;-0.23220524192
6.5;-0.11234070361
6.5500001907;-0.04768525064
6.5999999046;-0.00019325599715
6.6500000954;0.0
6.6999998093;0.0
6.75;0.0
6.8000001907;-0.0052661146037
6.8499999046;-0.068429864943
6.9000000954;-0.1140210703
6.9499998093;-0.2924606204
7.0;-0.37642627954
7.0500001907;-0.61018556356
7.0999999046;-0.69645220041
7.1500000954;-0.86370187998
7.1999998093;-0.91912162304
7.25;-0.97153359652
7.3000001907;-0.98617362976
7.3499999046;-0.9165982604
7.4000000954;-0.86632525921
7.4499998093;-0.75562024117
7.5;-0.6172066927
7.5500001907;-0.49914395809
7.5999999046;-0.34052732587
7.6500000954;-0.23720918596
7.6999998093;-0.12395116687
7.75;-0.04338465631
7.8000001907;-0.024196356535
7.8499999046;-0.0011970755877
7.9000000954;0.0
7.9499998093;-0.018605124205
8.0;-0.040456332266
8.0500001907;-0.098213501275
8.1000003815;-0.22558577359
8.1499996185;-0.36339610815
8.1999998093;-0.49636793137
8.25;-0.671890378
8.3000001907;-0.81196594238
8.3500003815;-0.94976294041
8.3999996185;-1.0610492229
8.4499998093;-1.1118509769
8.5;-1.1374931335
8.5500001907;-1.1251040697
8.6000003815;-1.0553920269
8.6499996185;-0.98210567236
8.6999998093;-0.84872436523
8.75;-0.72441715002
8.8000001907;-0.59719073772
8.8500003815;-0.46391758323
8.8999996185;-0.3561194241
8.9499998093;-0.25310778618
9.0;-0.18913224339
9.0500001907;-0.14583747089
9.1000003815;-0.14075136185
9.1499996185;-0.16148468852
9.1999998093;-0.21755202115
9.25;-0.30527225137
9.3000001907;-0.40292349458
9.3500003815;-0.55070382357
9.3999996185;-0.67473810911
9.4495000839;-0.82300847769
9.4995002747;-0.96369940042
9.5495004654;-1.0858150721
9.5994997025;-1.1864310503
9.6494998932;-1.255890727
9.6995000839;-1.2974758148
9.7495002747;-1.2974590063
9.7995004654;-1.2677550316
9.8494997025;-1.1948542595
9.8994998932;-1.1136655807
9.9495000839;-0.99029296637
9.9995002747;-0.88124889135
10.049500465;-0.7405166626
10.099499702;-0.63410383463
10.149499893;-0.51664340496
10.199500084;-0.43751206994
10.249500275;-0.38151597977
10.299500465;-0.33589401841
10.349499702;-0.33949333429
10.399499893;-0.35186600685
10.449500084;-0.39091429114
10.499500275;-0.46928909421
10.549500465;-0.54003626108
10.599499702;-0.64700186253
10.649499893;-0.74616622925
10.699500084;-0.82790267467
10.749500275;-0.91944360733
10.799500465;-0.94476383924
10.849499702;-0.99506545067
10.899499893;-0.95829904079
10.949500084;-0.9364901185
10.999500275;-0.86092698574
11.049500465;-0.77692133188
11.099499702;-0.69727808237
11.149499893;-0.60072785616
11.199500084;-0.51211684942
11.249500275;-0.40617313981
11.299500465;-0.31801605225
11.349499702;-0.21634556353
11.399499893;-0.1617487967
11.449500084;-0.10579305887
11.499500275;-0.09273031354
11.549500465;-0.087556920946
11.599499702;-0.098334424198
11.649499893;-0.11928409338
11.699500084;-0.16845373809
11.749500275;-0.21419993043
11.799500465;-0.3173609674
11.849499702;-0.38189160824
11.899499893;-0.51964235306
11.949500084;-0.60683041811
11.999500275;-0.71512782574
12.049500465;-0.78881239891
12.099499702;-0.84837937355
12.149499893;-0.86576217413
12.199500084;-0.86405295134
12.249500275;-0.82851916552
12.299500465;-0.77315878868
12.349499702;-0.69760733843
12.399499893;-0.61249244213
12.449500084;-0.51268619299
12.499500275;-0.41460576653
12.549500465;-0.33099687099
12.599499702;-0.27369076014
12.649499893;-0.22287575901
12.699500084;-0.22156718373
12.749500275;-0.20070379972
12.799500465;-0.22968240082
12.849499702;-0.26890924573
12.899499893;-0.33381676674
12.949500084;-0.40814992785
12.999500275;-0.493514359
13.049500465;-0.59127318859
13.099499702;-0.69368451834
13.149499893;-0.78433334827
13.199500084;-0.89198827744
13.249500275;-0.95202702284
13.299500465;-1.0152715445
13.349499702;-1.0283139944
13.399499893;-1.0263826847
13.449500084;-0.99463695288
13.499500275;-0.94796591997
13.549500465;-0.8886756897
13.599499702;-0.82047641277
13.649499893;-0.7466853261
13.699500084;-0.67632812262
13.749500275;-0.61091393232
13.799500465;-0.56437057257
13.849499702;-0.5251493454
13.899499893;-0.50330924988
13.949500084;-0.49271148443
13.999500275;-0.5083335042
14.049500465;-0.52519261837
14.099499702;-0.57522112131
14.149499893;-0.61619466543
14.199500084;-0.68290156126
14.249500275;-0.75989407301
14.299500465;-0.83293426037
14.349499702;-0.92355304956
14.399499893;-0.98019689322
14.449500084;-1.0329408646
14.499500275;-1.0527034998
14.549500465;-1.0409039259
14.599499702;-1.0184197426
14.649499893;-0.96195793152
14.699500084;-0.88538634777
14.749500275;-0.79253846407
14.799500465;-0.67845821381
14.849499702;-0.56034260988
14.899499893;-0.4345664382
14.949500084;-0.30791589618
14.999500275;-0.21772146225
15.049500465;-0.17140129209
15.099499702;-0.14993920922
15.149499893;-0.15088178217
15.199500084;-0.15621413291
15.249500275;-0.16737492383
15.299500465;-0.19106847048
15.349499702;-0.24147833884
15.399499893;-0.2786988616
15.449500084;-0.32592341304
15.499500275;-0.38191482425
15.549500465;-0.41792854667
15.599499702;-0.4601328373
15.649499893;-0.48732328415
15.699500084;-0.51163011789
15.749500275;-0.51428556442
15.799500465;-0.53177827597
15.849499702;-0.50402367115
15.899499893;-0.48467233777
15.949500084;-0.44506600499
15.999500275;-0.39657899737
16.049499512;-0.3541970253
16.099500656;-0.30337628722
16.149499893;-0.26421266794
16.19949913;-0.23138068616
16.249500275;-0.21802182496
16.299499512;-0.19571495056
16.349500656;-0.1987362802
16.399499893;-0.1946465224
16.44949913;-0.20147356391
16.499500275;-0.21968977153
16.549499512;-0.2434361279
16.599500656;-0.27997842431
16.649499893;-0.33359339833
16.69949913;-0.38033571839
16.749500275;-0.43942159414
16.799499512;-0.48512667418
16.849500656;-0.52955788374
16.899499893;-0.56592899561
16.94949913;-0.58521926403
16.999500275;-0.58896559477
17.049499512;-0.58227849007
17.099500656;-0.55600744486
17.149499893;-0.51798009872
17.19949913;-0.47560065985
17.249500275;-0.42940083146
17.299499512;-0.38547486067
17.349500656;-0.34712269902
17.399499893;-0.31295251846
17.44949913;-0.27776020765
17.499500275;-0.26273471117
17.549499512;-0.25334492326
17.599500656;-0.25331363082
17.649499893;-0.26548406482
17.69949913;-0.28591415286
17.749500275;-0.30721324682
17.799499512;-0.34741723537
17.849500656;-0.37950032949
17.899499893;-0.43005007505
17.94949913;-0.4823770225
17.999500275;-0.54040426016
18.049499512;-0.59403240681
18.099500656;-0.64527875185
18.149499893;-0.67786580324
18.19949913;-0.69734930992
18.249500275;-0.69109642506
18.299499512;-0.66024589539
18.349500656;-0.61219888926
18.399499893;-0.54361462593
18.44949913;-0.45984244347
18.499500275;-0.3690533936
18.549499512;-0.27656367421
18.599500656;-0.19210325181
18.649499893;-0.12955142558
18.69949913;-0.11507668346
18.749500275;-0.10533238947
18.799499512;-0.11284857243
18.849500656;-0.12657192349
18.899499893;-0.13338461518
18.94949913;-0.14676918089
18.999500275;-0.17644275725
19.049499512;-0.19613654912
19.099500656;-0.21321466565
19.149499893;-0.23907127976
19.19949913;-0.25912329555
19.249500275;-0.27198264003
19.299499512;-0.28921788931
19.349500656;-0.2888481617
19.399999619;-0.29060691595
19.450000763;-0.28081732988
19.5;-0.27163615823
19.549999237;-0.25655642152
19.600000381;-0.24125349522
19.649999619;-0.21906028688
19.700000763;-0.20392410457
19.75;-0.17875878513
19.799999237;-0.16060252488
19.850000381;-0.14183302224
19.899999619;-0.12828586996
19.950000763;-0.11553040892
20.0;-0.11110173166
20.049999237;-0.11002597958
20.100000381;-0.1118317917
20.149999619;-0.11978826672
20.200000763;-0.13407422602
20.25;-0.14746791124
20.299999237;-0.16815005243
20.350000381;-0.18749794364
20.399999619;-0.20944184065
20.450000763;-0.22708299756
20.5;-0.24667087197
20.549999237;-0.25467979908
20.600000381;-0.26309517026
20.649999619;-0.2567845881
20.700000763;-0.25156888366
20.75;-0.24268470705
20.799999237;-0.22346711159
20.850000381;-0.20666527748
20.899999619;-0.1875436306
20.950000763;-0.15044510365
21.0;-0.12595306337
21.049999237;-0.09222073108
21.100000381;-0.076819725335
21.149999619;-0.0651518628
21.200000763;-0.061144951731
21.25;-0.059311639518
21.299999237;-0.06380199641
21.350000381;-0.068993441761
21.399999619;-0.081216216087
21.450000763;-0.094306275249
21.5;-0.11050381511
21.549999237;-0.14311505854
21.600000381;-0.17520596087
21.649999619;-0.20250070095
21.700000763;-0.2300363034
21.75;-0.25034689903
21.799999237;-0.26331523061
21.850000381;-0.28061538935
21.899999619;-0.28435763717
21.950000763;-0.29206857085
22.0;-0.29046010971
22.049999237;-0.28750661016
22.100000381;-0.27798953652
22.149999619;-0.26952013373
22.200000763;-0.25790044665
22.25;-0.243461743
22.299999237;-0.2267035991
22.350000381;-0.21425072849
22.399999619;-0.20108854771
22.450000763;-0.19290600717
22.5;-0.17951855063
22.549999237;-0.17237730324
22.600000381;-0.171646595
22.649999619;-0.18523617089
22.700000763;-0.19417759776
22.75;-0.21440832317
22.799999237;-0.23285441101
22.850000381;-0.25457444787
22.899999619;-0.27751085162
22.950000763;-0.29576772451
23.0;-0.30852013826
23.049999237;-0.32394558191
23.100000381;-0.3326434195
23.149999619;-0.33113029599
23.200000763;-0.32852512598
23.25;-0.31520324945
23.299999237;-0.30047661066
23.350000381;-0.28746464849
23.399999619;-0.26353594661
23.450000763;-0.24440138042
23.5;-0.21800900996
23.549999237;-0.20001524687
23.600000381;-0.18019384146
23.649999619;-0.17122225463
23.700000763;-0.16385786235
23.75;-0.16299979389
23.799999237;-0.16548666358
23.850000381;-0.16739043593
23.899999619;-0.17575404048
23.950000763;-0.18631911278
24.0;-0.20110921562
24.049999237;-0.21372659504
24.100000381;-0.22933478653
24.149999619;-0.24549360573
24.200000763;-0.25898364186
24.25;-0.27626919746
24.299999237;-0.28302919865
24.350000381;-0.28878888488
24.399999619;-0.28737610579
24.450000763;-0.2831402719
24.5;-0.26905873418
24.549999237;-0.25660642982
24.600000381;-0.23433484137
24.649999619;-0.21656443179
24.700000763;-0.19628813863
24.75;-0.18444567919
24.799999237;-0.17238609493
24.850000381;-0.16710190475
24.899999619;-0.16734834015
24.950000763;-0.1670717597
25.0;-0.17923000455
25.049999237;-0.18753276765
25.100000381;-0.19802455604
25.149999619;-0.2086520642
25.200000763;-0.22511659563
25.25;-0.24121949077
25.299999237;-0.26349431276
25.350000381;-0.28041803837
25.399999619;-0.30525755882
25.450000763;-0.32554602623
25.5;-0.34521523118
25.549999237;-0.36569800973
25.600000381;-0.38226351142
25.649999619;-0.39929887652
25.700000763;-0.41147470474
25.75;-0.41113767028
25.799999237;-0.40323272347
25.850000381;-0.3943528533
25.899999619;-0.38589829206
25.950000763;-0.37435799837
26.0;-0.36746117473
26.049999237;-0.35351169109
26.100000381;-0.35283720493
26.149999619;-0.34704679251
26.200000763;-0.35220828652
26.25;-0.3579300642
26.299999237;-0.37026879191
26.350000381;-0.39061999321
26.399999619;-0.40715309978
26.450000763;-0.4285287261
26.5;-0.44846093655
26.549999237;-0.47304129601
26.600000381;-0.49683833122
26.649999619;-0.51844269037
26.700000763;-0.5402725935
26.75;-0.55999684334
26.799999237;-0.57884079218
26.850000381;-0.58454090357
26.899999619;-0.58688271046
26.950000763;-0.57857125998
27.0;-0.57394427061
27.049999237;-0.56573545933
27.100000381;-0.56163096428
27.149999619;-0.55909615755
27.200000763;-0.54844468832
27.25;-0.53985279799
27.299999237;-0.52731668949
27.350000381;-0.52074879408
27.399999619;-0.52457910776
27.450000763;-0.53374528885
27.5;-0.54713112116
27.549999237;-0.56436735392
27.600000381;-0.5833131671
27.649999619;-0.61033332348
27.700000763;-0.64688134193
27.75;-0.67963838577
27.799999237;-0.71500849724
27.850000381;-0.74948453903
27.899999619;-0.78470432758
27.950000763;-0.81434988976
28.0;-0.82672160864
28.049999237;-0.83837610483
28.100000381;-0.83155584335
28.149999619;-0.8298073411
28.200000763;-0.83230835199
28.25;-0.82389223576
28.299999237;-0.81699931622
28.350000381;-0.80143356323
28.399999619;-0.78444540501
28.450000763;-0.77722913027
28.5;-0.76232647896
28.549999237;-0.75346618891
28.600000381;-0.73792099953
28.649999619;-0.73003757
28.700000763;-0.72608983517
28.75;-0.73942261934
28.799999237;-0.76096755266
28.850000381;-0.78960609436
28.899999619;-0.81402367353
28.950000763;-0.83634984493
29.0;-0.86265516281
29.049999237;-0.89329439402
29.100000381;-0.92573177814
29.149999619;-0.95257401466
29.200000763;-0.97686636448
29.25;-0.99968260527
29.299999237;-1.02453053
29.350000381;-1.0382239819
29.399999619;-1.0490800142
29.450000763;-1.0500378609
29.5;-1.0491117239
29.549999237;-1.0502456427
29.600000381;-1.0485211611
29.649999619;-1.048486948
29.700000763;-1.0408433676
29.75;-1.0377664566
29.799999237;-1.0444273949
29.850000381;-1.0578151941
29.899999619;-1.0755047798
29.950000763;-1.0963453054
30.0;-1.1164447069
30.049999237;-1.1415081024
30.100000381;-1.1715834141
30.149999619;-1.2077893019
30.200000763;-1.2557127476
30.25;-1.2982662916
30.299999237;-1.3468688726
30.350000381;-1.3834364414
30.399999619;-1.4236564636
30.450000763;-1.4565603733
30.5;-1.4939572811
30.549999237;-1.5119907856
30.600000381;-1.5317579508
30.649999619;-1.5370160341
30.700000763;-1.5419429541
30.75;-1.5468291044
30.799999237;-1.5491307974
30.850000381;-1.5490453243
30.899999619;-1.5507138968
30.950000763;-1.554864049
31.0;-1.5654687881
31.049999237;-1.5735833645
31.100000381;-1.5845270157
31.149999619;-1.597419858
31.200000763;-1.6111615896
31.25;-1.6369035244
31.299999237;-1.6637699604
31.350000381;-1.6950912476
31.399999619;-1.7198592424
31.450000763;-1.7343915701
31.5;-1.7492220402
31.549999237;-1.7652978897
31.600000381;-1.7837233543
31.649999619;-1.80450809
31.700000763;-1.8158994913
31.75;-1.8206458092
31.799999237;-1.8253769875
31.850000381;-1.8196868896
31.899999619;-1.8178853989
31.950000763;-1.8043524027
32.0;-1.7864153385
32.049999237;-1.767062664
32.099998474;-1.7514244318
32.150001526;-1.7412780523
32.200000763;-1.7358775139
32.25;-1.7318638563
32.299999237;-1.7346593142
32.349998474;-1.7375295162
32.400001526;-1.7527741194
32.450000763;-1.7658349276
32.5;-1.775706768
32.549999237;-1.7903809547
32.599998474;-1.7957392931
32.650001526;-1.8238530159
32.700000763;-1.8470060825
32.75;-1.8746037483
32.799999237;-1.8873517513
32.849998474;-1.8895095587
32.900001526;-1.8771647215
32.950000763;-1.8672243357
33.0;-1.8620210886
33.049999237;-1.8543112278
33.099998474;-1.8426253796
33.150001526;-1.8135311604
33.200000763;-1.785348773
33.25;-1.7589868307
33.299999237;-1.7416114807
33.349998474;-1.7390902042
33.400001526;-1.7440056801
33.450000763;-1.7572276592
33.5;-1.76111269
33.549999237;-1.7807842493
33.599998474;-1.7972780466
33.650001526;-1.8272402287
33.700000763;-1.8580114841
33.75;-1.8967424631
33.799999237;-1.9316154718
33.849998474;-1.9659340382
33.900001526;-1.9921580553
33.950000763;-2.0129449368
34.0;-2.0293684006
34.049999237;-2.0474951267
34.099998474;-2.0598750114
34.150001526;-2.07010746
34.200000763;-2.0647685528
34.25;-2.0590927601
34.299999237;-2.0426356792
34.349998474;-2.033097744
34.400001526;-2.017421484
34.450000763;-2.0103247166
34.5;-1.9986109734
34.549999237;-1.9916918278
34.599998474;-1.9833658934
34.650001526;-1.9858270884
34.700000763;-1.9920927286
34.75;-2.0059928894
34.799999237;-2.0211319923
34.849998474;-2.0328509808
34.900001526;-2.0474023819
34.950000763;-2.0557835102
35.0;-2.0667886734
35.049999237;-2.0816261768
35.099998474;-2.0875322819
35.150001526;-2.1069021225
35.200000763;-2.1093256474
35.25;-2.1135044098
35.299999237;-2.1078207493
35.349998474;-2.0938236713
35.400001526;-2.0752999783
35.450000763;-2.0488798618
35.5;-2.0219089985
35.549999237;-1.9930005074
35.599998474;-1.96783638
35.650001526;-1.9463608265
35.700000763;-1.9308401346
35.75;-1.9160908461
35.799999237;-1.9096252918
35.849998474;-1.9052512646
35.900001526;-1.9084162712
35.950000763;-1.908851862
36.0;-1.9131157398
36.049999237;-1.9174953699
36.099998474;-1.927051425
36.150001526;-1.9436899424
36.200000763;-1.9600545168
36.25;-1.9746080637
36.299999237;-1.9878497124
36.349998474;-1.9961566925
36.400001526;-2.004291296
36.450000763;-1.9990215302
36.5;-1.999353528
36.549999237;-1.9819008112
36.599998474;-1.9707833529
36.650001526;-1.9505324364
36.700000763;-1.9370855093
36.75;-1.9157983065
36.799999237;-1.8928160667
36.849998474;-1.870090723
36.900001526;-1.8336821795
36.950000763;-1.801931262
37.0;-1.762221694
