Angle[degree];Secondary axis[mm];Main axis[mm];Out-of-roundness[-];Collapse[mm]
0.0;21.23233991790908;21.25128736281749;-0.0008979831710146679;-0.09978135886186834
1.0;21.221260419396415;21.218792496181994;0.00011696318551761016;-0.0430902443422454
2.0;21.21117413219408;21.182889361855786;0.0013405104425732498;0.010827228779305642
3.0;21.199483797216946;21.144451906630064;0.0026081464733119465;0.06859199121469572
4.0;21.188931860445013;21.1016588156517;0.004136163260346618;0.12418653165511273
5.0;21.179441237340193;21.076094446317956;0.00489795218114864;0.1699555719742989
6.0;21.16970937852716;21.05594934987026;0.005391470552459633;0.20410085879566253
7.0;21.161153246666338;21.046667857586385;0.005425847823694427;0.22927647385510852
8.0;21.15360874799145;21.04024111628277;0.005372873540695746;0.24485036066892008
9.0;21.146735252615933;21.041220301102477;0.005000708602533455;0.2525971054390723
10.0;21.14031132690942;21.044161531551445;0.004556862339240461;0.2520461777645906
11.0;21.135066670664372;21.046734473809007;0.004186360040538635;0.2507431259498816
12.0;21.130872764474027;21.041228864221655;0.0042485260783115065;0.2508037792898179
13.0;21.1258065702878;21.030447046936256;0.0045194086896466175;0.25080401798586394
14.0;21.12089735593078;21.00750870688155;0.005373869623186296;0.2573927687763984
15.0;21.116877690110403;20.994456769568753;0.0058019393621635065;0.2566867272289741
16.0;21.113802310247483;20.971467029718287;0.0067457478923789345;0.2611767113889556
17.0;21.110175130090035;20.96384001495623;0.0069353135134504855;0.2617999422797226
18.0;21.10695787031664;20.957015020997453;0.00710629617626486;0.25852595149145685
19.0;21.105696804809796;20.957752050117055;0.007011599748471139;0.25251322390887765
20.0;21.102060306787614;20.96325706293541;0.006578352789204043;0.2381349190883597
21.0;21.099266466570015;20.96841109079628;0.0062016765769542315;0.22681472131082359
22.0;21.097080822711888;20.979894776939627;0.005553841031860705;0.20725674946078243
23.0;21.096147466079188;20.992395882300492;0.004917136671976091;0.18749494039876424
24.0;21.093093546164773;21.003627319646142;0.0042401055222100106;0.16690623697170537
25.0;21.088494551364125;21.019665175709036;0.0032620557182506346;0.14161400221716747
26.0;21.086899179350688;21.029137486915715;0.0027375209684821155;0.12206974028653406
27.0;21.083530800538874;21.04196220863312;0.0019700754457703533;0.09707266518802271
28.0;21.07906137779587;21.043922572766935;0.0016653462099021727;0.08163685169166968
29.0;21.074500719436152;21.047558933078577;0.0012768619126812975;0.06141052695738125
30.0;21.07319418941405;21.04481389146042;0.0013450378177075016;0.048823836755225614
31.0;21.069738576921633;21.035821465596985;0.001607446034343503;0.03818400089577523
32.0;21.06627232530245;21.032404981995548;0.0016050873605166771;0.024312073596405526
33.0;21.066046027556336;21.0198143284494;0.0021910757870586004;0.014879460878510997
34.0;21.0639066627677;21.01902639070234;0.002127027112102351;-0.0007615258738553621
35.0;21.06406930887003;21.00603696683615;0.0027503479636911306;-0.010074592881281319
36.0;21.06273925465083;21.007698913731286;0.002608546963011528;-0.027622052362147542
37.0;21.064726258744656;21.005542532196817;0.0028049159501345807;-0.044492576133919215
38.0;21.063712550406283;21.00765109137792;0.002656941186178363;-0.06189897960236124
39.0;21.063292728438192;21.012561807069986;0.002404309069583239;-0.08362840149806061
40.0;21.063689191491438;21.016813226881585;0.0022216096971494465;-0.10107144506198296
41.0;21.065053929894088;21.026776860722126;0.001814079107675895;-0.12403179896598004
42.0;21.06520519154696;21.02736121516425;0.0017935533830666709;-0.1383480741966423
43.0;21.064444864170003;21.034602159310968;0.001414346201850024;-0.1599351728479519
44.0;21.065348945970193;21.03284682819098;0.0015403847288726577;-0.17546371561714835
45.0;21.064797296957355;21.032777722229298;0.0015175153899553157;-0.19022442051657862
46.0;21.065197970290775;21.03111538066483;0.00161528860786474;-0.20807512648941184
47.0;21.065748899648774;21.028749215336276;0.0017535395408766826;-0.22142038025866384
48.0;21.067166829088713;21.026567618019268;0.0019241332260400408;-0.23974740374194425
49.0;21.067284438609768;21.022174440593336;0.0021379145979351765;-0.25086495856000113
50.0;21.067349562432096;21.020239282786054;0.00223271467516784;-0.26942952676207454
51.0;21.067870126952684;21.02094509447242;0.0022239351886380898;-0.28576207445330226
52.0;21.068337974814686;21.017641907723846;0.002402657208096675;-0.30094374957607073
53.0;21.068870156972274;21.021811754579577;0.0022302560375685667;-0.32135604646964566
54.0;21.069345340835376;21.018709687193702;0.0023997940114537384;-0.3364261360821459
55.0;21.06960742324791;21.021889415576826;0.002261516951236162;-0.35601219525766936
56.0;21.06993548136433;21.020014666603767;0.002365915391495802;-0.3702376123827307
57.0;21.070209816731055;21.022132817141113;0.002278530786253151;-0.389121235974784
58.0;21.07040765197719;21.02326276549015;0.0022343548098124727;-0.4062671247788856
59.0;21.070989496617415;21.018421200750318;0.0024913884297202366;-0.4189766670667012
60.0;21.072138993273995;21.024985652149105;0.0022347555035492836;-0.4395589808394931
61.0;21.073654587592188;21.02012051873039;0.002537159661696546;-0.45227749623849434
62.0;21.075641213728346;21.023521687442955;0.0024701197291654743;-0.4687330545608219
63.0;21.078171202572868;21.021020243876674;0.002708576241525804;-0.48328940448745783
64.0;21.08128936689436;21.02552484512602;0.002642868330253018;-0.49823546823009934
65.0;21.084996184801398;21.025565673674084;0.0028166119017684205;-0.5150224639785677
66.0;21.089489965380793;21.022760567653282;0.0031625306979862593;-0.5223201217754436
67.0;21.092601256359337;21.023790194788308;0.003261187752181485;-0.5384698450872563
68.0;21.096568198419348;21.023991308110336;0.003439663047820476;-0.547641906142438
69.0;21.101855421256314;21.01790804661223;0.0039785485613309515;-0.5563643878385136
70.0;21.104960099462772;21.022958742684324;0.003886320226466756;-0.5688245562743859
71.0;21.106830014990436;21.01904049353466;0.004160640827287931;-0.5762129753233651
72.0;21.11049923087885;21.02309751867743;0.004142261241773434;-0.5863871215765144
73.0;21.113794209330017;21.0182016012731;0.004530455358147795;-0.5924781485883486
74.0;21.115389847622417;21.02126891366459;0.004460707770513204;-0.6003016587903289
75.0;21.114833659530596;21.021881771586777;0.004405302746152566;-0.6088325606812148
76.0;21.11789312854851;21.01871460307155;0.004700404051040671;-0.6089465326126913
77.0;21.11411782653372;21.018679237156444;0.0045231558946576935;-0.6169681939944525
78.0;21.118479120550994;21.021152131401948;0.004612653514172798;-0.6208170247209921
79.0;21.12058328395631;21.0187924860167;0.004824208433156903;-0.6232109060709377
80.0;21.114989304021258;21.028310069861302;0.004108020576301213;-0.6325495803558638
81.0;21.114210513200696;21.025968862931773;0.0041820687331243205;-0.6356986609848008
82.0;21.123832256703686;21.033749846142424;0.004269308557405786;-0.6414487557045305
83.0;21.116697395390837;21.039658448621886;0.003651134917959771;-0.650234029239364
84.0;21.11603702221816;21.046187958691487;0.0033103821576621574;-0.65406203793043
85.0;21.11869215704419;21.047592066634486;0.0033696725312655973;-0.6597894232303432
86.0;21.11918045936614;21.05843433442487;0.0028789632673588395;-0.6664197802578968
87.0;21.102473909972822;21.062108762736226;0.001913040153393165;-0.6719681711651688
88.0;21.103996438500147;21.071860738757024;0.0015230189451716756;-0.681087323174367
88.6;21.110529974931154;21.0750751448316;0.0016803237014006251;-0.6870138684544216
