Angle[degree];Secondary axis[mm];Main axis[mm];Out-of-roundness[-];Collapse[mm]
0.0;21.464287858460473;21.634891963791695;-0.008009582409916524;0.3070578540162785
1.0;21.4407730730331;21.597547626309645;-0.0073603076655654924;0.36272860490954884
2.0;21.415378670293684;21.533273945356875;-0.00553498943958642;0.4109702800663513
3.0;21.388062181059233;21.444803231804762;-0.002663899096034238;0.4541488751814171
4.0;21.35847036679228;21.34392308791555;0.0006829708392830995;0.4860385080483738
5.0;21.326338216342236;21.223254919402716;0.004839591405611262;0.5023317877657831
6.0;21.291841783602933;21.10181012208563;0.008921674249638618;0.4928497349411316
7.0;21.25332848291975;20.99224156499858;0.012257601780336573;0.4716630550349308
8.0;21.212492191603552;20.8915462085226;0.015067886529622232;0.43854942322644064
9.0;21.172233960981078;20.850835387450893;0.015089134907520441;0.39693981531451783
10.0;21.131067434406837;20.826748327671698;0.014287282006344573;0.3466413470292977
11.0;21.088749917294304;20.84891394364802;0.011259904866022673;0.31010946965542985
12.0;21.048253662757105;20.874565529758346;0.008154372441256288;0.28008191068986577
13.0;21.01225002177614;20.955465096330748;0.0026659589410982076;0.27865134455677065
14.0;20.984432210674857;21.03140596456898;-0.0022053405584094707;0.293111938686863
15.0;20.954383584594577;21.119986153879214;-0.007774768511015822;0.3158906221672666
16.0;20.93431018762721;21.16903579214598;-0.01101998143280603;0.37210281601794293
17.0;20.916390725058005;21.21141144015136;-0.013850737797810065;0.4292675513041928
18.0;20.912416106377123;21.22057062873214;-0.014467348467371735;0.5033773207574441
19.0;20.90982950076968;21.228956017121703;-0.014982465556433094;0.5661799206273201
20.0;20.90193500429358;21.205753921313192;-0.014263798921108541;0.622498045014801
21.0;20.90619374595496;21.170855861764164;-0.012425451446441563;0.6667485578539853
22.0;20.923822195047478;21.119668043082445;-0.00919464075281535;0.6996861519198632
23.0;20.929445733959867;21.077066347511142;-0.0069305452371490805;0.709243989536553
24.0;20.93570795081686;21.025034365864965;-0.004193728406014362;0.6983954904765426
25.0;20.940156409004967;20.967738557260194;-0.0012949365378041044;0.6772298627692521
26.0;20.942687725400138;20.91991067549814;0.0010693450658214461;0.6436514515079068
27.0;20.94075740962313;20.865692925733867;0.003524154173204883;0.6102700777898278
28.0;20.933426544617625;20.848872603142176;0.003969668613870815;0.568236598613268
29.0;20.924657439193375;20.822388330112556;0.004801366623512618;0.5344369541556446
30.0;20.909316888147508;20.837504136408622;0.003371490691966469;0.49896925867710706
31.0;20.896770383944144;20.845490870727076;0.002407488883430424;0.4801819539584855
32.0;20.89275192791221;20.908033919980976;-0.0007174644163739339;0.4661011062481677
33.0;20.89004509983207;20.966793065116097;-0.0036031908584050676;0.4602526856387428
34.0;20.89156620279982;21.021732732716032;-0.006111104690902025;0.4683887934674118
35.0;20.89994202548557;21.05316726853119;-0.007193673382423558;0.48362158543730516
36.0;20.91001773726724;21.053559680791817;-0.0067390583814356045;0.5112055664051951
37.0;20.92357538205118;21.04929044606057;-0.005902115681192072;0.5338259327265931
38.0;20.94530825645331;21.02678176497995;-0.0038250473486686402;0.5650444902821548
39.0;20.963996272319978;21.00244343540222;-0.0018050311306217134;0.5880921844757481
40.0;20.986543241808306;20.962610554374216;0.001123600349018328;0.6163244392336509
41.0;21.011269301527356;20.927545377976056;0.003930700636211282;0.6352865454580083
42.0;21.035937582115707;20.890920836220484;0.00680829792935319;0.6509491517072448
43.0;21.055472534233882;20.86364295589236;0.009006083490212322;0.6611961088509233
44.0;21.073351325600093;20.84440377021206;0.010748711520564894;0.6649651418943208
45.0;21.089934571382432;20.830783261625456;0.012166728157604537;0.6641710698542695
46.0;21.103873394679262;20.82580771124758;0.013054726921675155;0.6536204167087476
47.0;21.11442467938611;20.81927389381136;0.013856844393180821;0.6440611221458212
48.0;21.122499148991903;20.82109396538053;0.014150478103820294;0.6244394352704177
49.0;21.128588012671358;20.825562367112948;0.014226556129502825;0.6030421954899623
50.0;21.133628411792976;20.83305541232576;0.014111408425690952;0.5784113519240108
51.0;21.137127758720137;20.844618298327983;0.01373283851606355;0.5500841973418744
52.0;21.139340247516948;20.85225176293476;0.013478332609492412;0.5259690249076954
53.0;21.141102305504305;20.865202451967352;0.012953044766993056;0.49632785760903886
54.0;21.14314202473725;20.86663030441917;0.012981770906952112;0.4783854269539418
55.0;21.144869549053766;20.872001589450353;0.012810702328798749;0.45552783413906894
56.0;21.14662432074836;20.869368014611982;0.013016727987623294;0.4419506419417516
57.0;21.148971091586354;20.863393387424278;0.013407403951271182;0.43049895204984523
58.0;21.152037308777285;20.86051738004507;0.01368638163062037;0.4167109231933068
59.0;21.155672293833238;20.849252226304973;0.014385918663298821;0.40945794904287425
60.0;21.159938213541324;20.845273865919527;0.014772974066751019;0.3965336947017377
61.0;21.16493657605006;20.833757465621062;0.015548315043614931;0.38962329987361244
62.0;21.170280222413233;20.829310739226454;0.016007956957125768;0.37738440166383924
63.0;21.176528458173443;20.82384149079549;0.016558073585819354;0.36410874758888667
64.0;21.18367688968266;20.819074534530788;0.01711748146252912;0.3527864590881862
65.0;21.19005574281658;20.819495971318485;0.01739717237080253;0.334323483677359
66.0;21.197068955685506;20.81480342663402;0.01794673845312147;0.32340905657834895
67.0;21.20483279573942;20.813483877307707;0.018373188658765895;0.3062031936893064
68.0;21.21309008536831;20.813178404750275;0.01877519627314723;0.29084174752524916
69.0;21.220295184853562;20.811679780008014;0.019183821823734664;0.2737863910275422
70.0;21.2284831173883;20.817306362838735;0.019304072983547665;0.2529972148616011
71.0;21.238549210508133;20.813302764263042;0.019964621889440856;0.23791081180062434
72.0;21.246927777846118;20.822322775041464;0.019934507173927415;0.21550474518646467
73.0;21.253427330017974;20.822957480849247;0.02020985207364915;0.19729735018947991
74.0;21.26351932471143;20.82965146825285;0.020369382932327693;0.1778217243679876
75.0;21.271191742545255;20.832815859145878;0.02058102738964213;0.15606630154242396
76.0;21.279976922494825;20.83367572989523;0.020953107633783802;0.14236940723693436
77.0;21.283516038437906;20.83264440941398;0.021167682113799324;0.124502122709373
78.0;21.291905352715187;20.832562613026663;0.021565386839836772;0.11220393307876719
79.0;21.29511460047714;20.827829648345737;0.021938260663446205;0.09764790969779114
80.0;21.30354609074974;20.832467694532017;0.022116356629940086;0.08057169831275246
81.0;21.309589902768995;20.82664883358803;0.022673289632909082;0.06823648462859921
82.0;21.307404803169035;20.834706918456988;0.022192388953617265;0.04883835454309349
83.0;21.31467987142312;20.838547070604427;0.02235365262059591;0.028478420743851984
84.0;21.332796346972497;20.84745372573472;0.022786038555764176;0.008434355122304282
85.0;21.33216524545791;20.85937370110598;0.02219678611980899;-0.01682089479687221
86.0;21.32485108585555;20.862188275911176;0.021721258682834404;-0.03084250282955736
87.0;21.353267856703006;20.867648428807147;0.022799034173514504;-0.049725190064748404
88.0;21.36444304119833;20.87845497484172;0.022816341143502894;-0.07478908675182083
88.86;21.359400064825543;20.89555233935333;0.02177688851982222;-0.10307768346703483
