Time [s];Force [kN]
0.0;0.0
0.049499999732;0.0
0.099500000477;0.0
0.1494999975;0.0
0.19949999452;0.0
0.24950000644;0.0
0.29949998856;0.0
0.34950000048;0.0
0.3995000124;0.0
0.44949999452;0.0
0.49950000644;-0.050534561276
0.55000001192;-0.37337955832
0.60000002384;-0.86766946316
0.64999997616;-1.2942847013
0.69999998808;-1.6098744869
0.75;-1.8370070457
0.80000001192;-2.0644600391
0.85000002384;-2.1900053024
0.89999997616;-2.2077524662
0.94999998808;-1.9301825762
1.0;-1.576800704
1.0499999523;-1.2195609808
1.1000000238;-0.90434008837
1.1499999762;-0.52956914902
1.2000000477;-0.35980296135
1.25;-0.080210469663
1.2999999523;-9.8607626569e-05
1.3500000238;0.0
1.3999999762;0.0
1.4500000477;0.0
1.5;0.0
1.5499999523;0.0
1.6000000238;0.0
1.6499999762;0.0
1.7000000477;0.0
1.75;0.0
1.7999999523;-0.0033716796897
1.8500000238;-0.26575782895
1.8999999762;-0.52275389433
1.9500000477;-1.0366864204
2.0;-1.4710841179
2.0499999523;-1.7918567657
2.0999999046;-1.8040335178
2.1500000954;-1.5026417971
2.2000000477;-1.2171077728
2.25;-0.9020819664
2.2999999523;-0.75872862339
2.3499999046;-0.70829188824
2.4000000954;-0.63267290592
2.4500000477;-0.42509606481
2.4995000362;-0.14645755291
2.5494999886;-0.15261361003
2.5994999409;0.0
2.6494998932;0.0
2.6995000839;0.0
2.7495000362;0.0
2.7994999886;0.0
2.8494999409;0.0
2.8994998932;0.0
2.9495000839;0.0
2.9995000362;0.0
3.0494999886;0.0
3.0994999409;-0.10710338503
3.1494998932;-0.17888076603
3.1995000839;-0.5933701396
3.2495000362;-0.75463336706
3.2994999886;-0.96364986897
3.3494999409;-1.0250302553
3.3994998932;-1.1521002054
3.4495000839;-1.1870219707
3.4995000362;-1.1707310677
3.5494999886;-1.0765142441
3.5994999409;-0.90989923477
3.6494998932;-0.81557106972
3.6995000839;-0.52572792768
3.7495000362;-0.34448128939
3.7994999886;-0.12236750871
3.8494999409;-0.00015444206656
3.8994998932;0.0
3.9495000839;0.0
3.9995000362;0.0
4.0494999886;0.0
4.0995001793;0.0
4.1494998932;0.0
4.1995000839;0.0
4.2494997978;0.0
4.2994999886;-0.046849969774
4.3495001793;-0.13701359928
4.3994998932;-0.26492923498
4.4495000839;-0.46673861146
4.4994997978;-0.65190178156
4.5494999886;-0.82027554512
4.5995001793;-0.94035601616
4.6494998932;-1.0367689133
4.6995000839;-1.0459848642
4.7494997978;-1.0754286051
4.7994999886;-1.0070829391
4.8495001793;-0.95457959175
4.8994998932;-0.7891201973
4.9499998093;-0.66149055958
5.0;-0.47815778852
5.0500001907;-0.31271314621
5.0999999046;-0.13274550438
5.1500000954;-0.051307655871
5.1999998093;-0.015685623512
5.25;-0.00020816613687
5.3000001907;0.0
5.3499999046;0.0
5.4000000954;0.0
5.4499998093;-4.1323505684e-06
5.5;-0.06712076813
5.5500001907;-0.11718337983
5.5999999046;-0.28490561247
5.6500000954;-0.43633714318
5.6999998093;-0.66666299105
5.75;-0.78384923935
5.8000001907;-0.99134856462
5.8499999046;-1.137609601
5.9000000954;-1.2187772989
5.9499998093;-1.2748329639
6.0;-1.2737514973
6.0500001907;-1.2150602341
6.0999999046;-1.1506631374
6.1500000954;-0.96905386448
6.1999998093;-0.82965731621
6.25;-0.66010951996
6.3000001907;-0.48743608594
6.3499999046;-0.33130627871
6.4000000954;-0.20877246559
6.4499998093;-0.10724963248
6.5;-0.037611290812
6.5500001907;-0.018915979192
6.5999999046;-0.00043602497317
6.6500000954;-0.015344692394
6.6999998093;-0.03884973377
6.75;-0.084208458662
6.8000001907;-0.18498210609
6.8499999046;-0.26696923375
6.9000000954;-0.46299353242
6.9499998093;-0.59118390083
7.0;-0.78618127108
7.0500001907;-0.91717022657
7.0999999046;-1.0295579433
7.1500000954;-1.0859841108
7.1999998093;-1.0733189583
7.25;-1.0764038563
7.3000001907;-0.94803488255
7.3499999046;-0.86584669352
7.4000000954;-0.70447707176
7.4499998093;-0.57862401009
7.5;-0.40409454703
7.5500001907;-0.28091451526
7.5999999046;-0.13025699556
7.6500000954;-0.081158779562
7.6999998093;-0.027605403215
7.75;-0.0080066891387
7.8000001907;-0.011347181164
7.8499999046;-0.019570969045
7.9000000954;-0.034831602126
7.9499998093;-0.13821470737
8.0;-0.24220982194
8.0500001907;-0.38398903608
8.1000003815;-0.5666398406
8.1499996185;-0.73278415203
8.1999998093;-0.88446885347
8.25;-1.0198155642
8.3000001907;-1.120996356
8.3500003815;-1.2102501392
8.3999996185;-1.2240751982
8.4499998093;-1.2172412872
8.5;-1.1665016413
8.5500001907;-1.0554687977
8.6000003815;-0.95044654608
8.6499996185;-0.78520834446
8.6999998093;-0.64258956909
8.75;-0.48914533854
8.8000001907;-0.36289599538
8.8500003815;-0.25429517031
8.8999996185;-0.17006087303
8.9499998093;-0.12650942802
9.0;-0.12462627888
9.0500001907;-0.14864313602
9.1000003815;-0.21576499939
9.1499996185;-0.32032954693
9.1999998093;-0.43003100157
9.25;-0.5962626338
9.3000001907;-0.74031764269
9.3500003815;-0.89397168159
9.3999996185;-1.0486630201
9.4495000839;-1.1739186049
9.4995002747;-1.3011231422
9.5495004654;-1.3655697107
9.5994997025;-1.4061768055
9.6494998932;-1.3959929943
9.6995000839;-1.3343197107
9.7495002747;-1.2620934248
9.7995004654;-1.1473827362
9.8494997025;-1.020450592
9.8994998932;-0.89085966349
9.9495000839;-0.73761790991
9.9995002747;-0.63039910793
10.049500465;-0.49163630605
10.099499702;-0.43351027369
10.149499893;-0.35534611344
10.199500084;-0.35972005129
10.249500275;-0.36259409785
10.299500465;-0.41496622562
10.349499702;-0.47698587179
10.399499893;-0.57955783606
10.449500084;-0.67711788416
10.499500275;-0.81366062164
10.549500465;-0.9255309701
10.599499702;-1.052175045
10.649499893;-1.1312015057
10.699500084;-1.1933754683
10.749500275;-1.20333004
10.799500465;-1.1973303556
10.849499702;-1.1249808073
10.899499893;-1.0309737921
10.949500084;-0.90929239988
10.999500275;-0.77301216125
11.049500465;-0.6482962966
11.099499702;-0.51795643568
11.149499893;-0.40358126163
11.199500084;-0.29878556728
11.249500275;-0.23206309974
11.299500465;-0.17522853613
11.349499702;-0.15254202485
11.399499893;-0.1452935338
11.449500084;-0.14293330908
11.499500275;-0.17456160486
11.549500465;-0.21593239903
11.599499702;-0.28316357732
11.649499893;-0.37215217948
11.699500084;-0.47494313121
11.749500275;-0.58308327198
11.799500465;-0.6937084794
11.849499702;-0.79027962685
11.899499893;-0.87482076883
11.949500084;-0.93287694454
11.999500275;-0.95642161369
12.049500465;-0.95151549578
12.099499702;-0.92778360844
12.149499893;-0.86274147034
12.199500084;-0.79744255543
12.249500275;-0.70350259542
12.299500465;-0.61438024044
12.349499702;-0.51751548052
12.399499893;-0.43627002835
12.449500084;-0.34814694524
12.499500275;-0.29358702898
12.549500465;-0.24508871138
12.599499702;-0.23056739569
12.649499893;-0.25590214133
12.699500084;-0.26881200075
12.749500275;-0.34784182906
12.799500465;-0.42085829377
12.849499702;-0.52487319708
12.899499893;-0.63901138306
12.949500084;-0.74255478382
12.999500275;-0.84475839138
13.049500465;-0.93953430653
13.099499702;-1.0119050741
13.149499893;-1.077196002
13.199500084;-1.097058773
13.249500275;-1.1066019535
13.299500465;-1.0726648569
13.349499702;-1.0296481848
13.399499893;-0.95762890577
13.449500084;-0.87426644564
13.499500275;-0.79285848141
13.549500465;-0.69700872898
13.599499702;-0.63048171997
13.649499893;-0.55127161741
13.699500084;-0.50987297297
13.749500275;-0.47608739138
13.799500465;-0.47411182523
13.849499702;-0.49418574572
13.899499893;-0.53831505775
13.949500084;-0.60418498516
13.999500275;-0.69368517399
14.049500465;-0.78253680468
14.099499702;-0.88287585974
14.149499893;-0.98203384876
14.199500084;-1.0746152401
14.249500275;-1.1525092125
14.299500465;-1.2135359049
14.349499702;-1.2513697147
14.399499893;-1.2572090626
14.449500084;-1.242683053
14.499500275;-1.1818666458
14.549500465;-1.0985143185
14.599499702;-0.99145543575
14.649499893;-0.86286467314
14.699500084;-0.73564571142
14.749500275;-0.61328625679
14.799500465;-0.48059380054
14.849499702;-0.39391550422
14.899499893;-0.28391733766
14.949500084;-0.23073095083
14.999500275;-0.19789940119
15.049500465;-0.19291377068
15.099499702;-0.22409804165
15.149499893;-0.27166852355
15.199500084;-0.3112565279
15.249500275;-0.38563609123
15.299500465;-0.45070436597
15.349499702;-0.53467333317
15.399499893;-0.60153877735
15.449500084;-0.68566614389
15.499500275;-0.719822824
15.549500465;-0.76363253593
15.599499702;-0.75192838907
15.649499893;-0.73731607199
15.699500084;-0.68750119209
15.749500275;-0.63378149271
15.799500465;-0.56072467566
15.849499702;-0.48919135332
15.899499893;-0.41942024231
15.949500084;-0.35375973582
15.999500275;-0.29470542073
16.049499512;-0.26298567653
16.099500656;-0.22628368437
16.149499893;-0.21747277677
16.19949913;-0.22166062891
16.249500275;-0.2422336489
16.299499512;-0.28076738119
16.349500656;-0.33312535286
16.399499893;-0.3974788487
16.44949913;-0.47616514564
16.499500275;-0.56243264675
16.549499512;-0.65162277222
16.599500656;-0.72316479683
16.649499893;-0.78378844261
16.69949913;-0.83115530014
16.749500275;-0.86805278063
16.799499512;-0.866276443
16.849500656;-0.84507125616
16.899499893;-0.78102833033
16.94949913;-0.71205216646
16.999500275;-0.62944024801
17.049499512;-0.56270807981
17.099500656;-0.49281841516
17.149499893;-0.42591145635
17.19949913;-0.38349631429
17.249500275;-0.32442706823
17.299499512;-0.31343141198
17.349500656;-0.30115625262
17.399499893;-0.32216596603
17.44949913;-0.37086763978
17.499500275;-0.42514973879
17.549499512;-0.48898234963
17.599500656;-0.56904876232
17.649499893;-0.64316701889
17.69949913;-0.72032660246
17.749500275;-0.80390387774
17.799499512;-0.86362046003
17.849500656;-0.91478848457
17.899499893;-0.94620859623
17.94949913;-0.94966077805
17.999500275;-0.93454539776
18.049499512;-0.90067380667
18.099500656;-0.85467261076
18.149499893;-0.79939556122
18.19949913;-0.73609733582
18.249500275;-0.66416287422
18.299499512;-0.59276407957
18.349500656;-0.51243585348
18.399499893;-0.44431099296
18.44949913;-0.37299534678
18.499500275;-0.32903006673
18.549499512;-0.27939191461
18.599500656;-0.26441812515
18.649499893;-0.24425397813
18.69949913;-0.25018364191
18.749500275;-0.26801535487
18.799499512;-0.28496068716
18.849500656;-0.31244537234
18.899499893;-0.33465889096
18.94949913;-0.36229154468
18.999500275;-0.38622361422
19.049499512;-0.40157577395
19.099500656;-0.41386190057
19.149499893;-0.41271257401
19.19949913;-0.40087297559
19.249500275;-0.38990110159
19.299499512;-0.3616425097
19.349500656;-0.33222433925
19.399999619;-0.29887902737
19.450000763;-0.2604624033
19.5;-0.22436344624
19.549999237;-0.19367152452
19.600000381;-0.16603936255
19.649999619;-0.14202177525
19.700000763;-0.1294490695
19.75;-0.11885560304
19.799999237;-0.12143678963
19.850000381;-0.12611287832
19.899999619;-0.13736613095
19.950000763;-0.14885431528
20.0;-0.17334465683
20.049999237;-0.19798858464
20.100000381;-0.2312694788
20.149999619;-0.26259690523
20.200000763;-0.29260835052
20.25;-0.32009506226
20.299999237;-0.34046405554
20.350000381;-0.35205253959
20.399999619;-0.35560661554
20.450000763;-0.34576568007
20.5;-0.33165726066
20.549999237;-0.30905371904
20.600000381;-0.28206083179
20.649999619;-0.24895046651
20.700000763;-0.21568392217
20.75;-0.17629215121
20.799999237;-0.14059217274
20.850000381;-0.10744687915
20.899999619;-0.079768754542
20.950000763;-0.058188322932
21.0;-0.054229125381
21.049999237;-0.051043786108
21.100000381;-0.056940305978
21.149999619;-0.069139055908
21.200000763;-0.083324238658
21.25;-0.10658743232
21.299999237;-0.13951867819
21.350000381;-0.17344932258
21.399999619;-0.20736345649
21.450000763;-0.23751457036
21.5;-0.27066025138
21.549999237;-0.29686874151
21.600000381;-0.31054091454
21.649999619;-0.31826108694
21.700000763;-0.30700293183
21.75;-0.29639238119
21.799999237;-0.28461635113
21.850000381;-0.27175688744
21.899999619;-0.25367069244
21.950000763;-0.23587279022
22.0;-0.2139994055
22.049999237;-0.19992305338
22.100000381;-0.18619796634
22.149999619;-0.17839567363
22.200000763;-0.17527942359
22.25;-0.1777933985
22.299999237;-0.18201087415
22.350000381;-0.19443583488
22.399999619;-0.21140004694
22.450000763;-0.22897157073
22.5;-0.24238030612
22.549999237;-0.26821219921
22.600000381;-0.28259813786
22.649999619;-0.30678886175
22.700000763;-0.32651719451
22.75;-0.34072628617
22.799999237;-0.34941065311
22.850000381;-0.35816422105
22.899999619;-0.35537958145
22.950000763;-0.34568572044
23.0;-0.33418229222
23.049999237;-0.31390109658
23.100000381;-0.29088866711
23.149999619;-0.26306545734
23.200000763;-0.2342068702
23.25;-0.20916138589
23.299999237;-0.18691429496
23.350000381;-0.16728341579
23.399999619;-0.14855599403
23.450000763;-0.13729353249
23.5;-0.12630333006
23.549999237;-0.12695752084
23.600000381;-0.13368794322
23.649999619;-0.1409585923
23.700000763;-0.15987016261
23.75;-0.18381524086
23.799999237;-0.21017231047
23.850000381;-0.23892785609
23.899999619;-0.26745900512
23.950000763;-0.28992384672
24.0;-0.30508521199
24.049999237;-0.31810638309
24.100000381;-0.31739982963
24.149999619;-0.30983069539
24.200000763;-0.29545322061
24.25;-0.2680452764
24.299999237;-0.24814964831
24.350000381;-0.22458460927
24.399999619;-0.19904185832
24.450000763;-0.17534768581
24.5;-0.15375541151
24.549999237;-0.1352507174
24.600000381;-0.12112975866
24.649999619;-0.11766671389
24.700000763;-0.11014192551
24.75;-0.11270222068
24.799999237;-0.12233702093
24.850000381;-0.13572271168
24.899999619;-0.15225756168
24.950000763;-0.1787301302
25.0;-0.20484988391
25.049999237;-0.23263545334
25.100000381;-0.26203453541
25.149999619;-0.29125750065
25.200000763;-0.31573048234
25.25;-0.34184670448
25.299999237;-0.36325711012
25.350000381;-0.37234529853
25.399999619;-0.38540777564
25.450000763;-0.38198399544
25.5;-0.37257158756
25.549999237;-0.36215901375
25.600000381;-0.33880954981
25.649999619;-0.32530340552
25.700000763;-0.30763533711
25.75;-0.29070529342
25.799999237;-0.28212216496
25.850000381;-0.26951596141
25.899999619;-0.2677950561
25.950000763;-0.26582583785
26.0;-0.27596572042
26.049999237;-0.29133147001
26.100000381;-0.31161734462
26.149999619;-0.33716610074
26.200000763;-0.35775950551
26.25;-0.38694238663
26.299999237;-0.42192056775
26.350000381;-0.46062207222
26.399999619;-0.50162428617
26.450000763;-0.533200562
26.5;-0.55495226383
26.549999237;-0.56644517183
26.600000381;-0.56869369745
26.649999619;-0.56065005064
26.700000763;-0.54598605633
26.75;-0.53102958202
26.799999237;-0.50984185934
26.850000381;-0.49578359723
26.899999619;-0.47155162692
26.950000763;-0.45015469193
27.0;-0.43335926533
27.049999237;-0.41600281
27.100000381;-0.40816441178
27.149999619;-0.40737295151
27.200000763;-0.41529643536
27.25;-0.43052473664
27.299999237;-0.4532057941
27.350000381;-0.47931885719
27.399999619;-0.51404672861
27.450000763;-0.55238980055
27.5;-0.59994667768
27.549999237;-0.64445710182
27.600000381;-0.68567281961
27.649999619;-0.72135555744
27.700000763;-0.75265753269
27.75;-0.78141134977
27.799999237;-0.80437684059
27.850000381;-0.81952106953
27.899999619;-0.83490216732
27.950000763;-0.82880586386
28.0;-0.81561768055
28.049999237;-0.78328967094
28.100000381;-0.74372845888
28.149999619;-0.70237958431
28.200000763;-0.66949993372
28.25;-0.64515703917
28.299999237;-0.63101106882
28.350000381;-0.62902796268
28.399999619;-0.63424372673
28.450000763;-0.65380239487
28.5;-0.67129528522
28.549999237;-0.704895854
28.600000381;-0.73471003771
28.649999619;-0.76872581244
28.700000763;-0.80451637506
28.75;-0.84326148033
28.799999237;-0.88437640667
28.850000381;-0.92168366909
28.899999619;-0.96183311939
28.950000763;-0.97924774885
29.0;-0.99090009928
29.049999237;-0.98493981361
29.100000381;-0.97713619471
29.149999619;-0.95969545841
29.200000763;-0.94948363304
29.25;-0.93865025043
29.299999237;-0.91534519196
29.350000381;-0.89949691296
29.399999619;-0.87588655949
29.450000763;-0.87179708481
29.5;-0.87078720331
29.549999237;-0.87993103266
29.600000381;-0.89729452133
29.649999619;-0.91389995813
29.700000763;-0.93837791681
29.75;-0.9773414731
29.799999237;-1.0131137371
29.850000381;-1.0617662668
29.899999619;-1.1155643463
29.950000763;-1.1615011692
30.0;-1.2080652714
30.049999237;-1.2444888353
30.100000381;-1.2704777718
30.149999619;-1.2997847795
30.200000763;-1.3296145201
30.25;-1.3549391031
30.299999237;-1.382489562
30.350000381;-1.3945602179
30.399999619;-1.3975430727
30.450000763;-1.3972115517
30.5;-1.3970639706
30.549999237;-1.3960840702
30.600000381;-1.3957647085
30.649999619;-1.3935666084
30.700000763;-1.3900119066
30.75;-1.3937408924
30.799999237;-1.4012521505
30.850000381;-1.4256581068
30.899999619;-1.4531681538
30.950000763;-1.4902887344
31.0;-1.5285227299
31.049999237;-1.5707768202
31.100000381;-1.6145893335
31.149999619;-1.6643410921
31.200000763;-1.7094956636
31.25;-1.7555810213
31.299999237;-1.7903218269
31.350000381;-1.8191529512
31.399999619;-1.8302346468
31.450000763;-1.8232418299
31.5;-1.8060028553
31.549999237;-1.7841858864
31.600000381;-1.7657889128
31.649999619;-1.7516487837
31.700000763;-1.735514164
31.75;-1.712020874
31.799999237;-1.6927242279
31.850000381;-1.6681190729
31.899999619;-1.6588997841
31.950000763;-1.6558581591
32.0;-1.657692194
32.049999237;-1.6710271835
32.099998474;-1.6839221716
32.150001526;-1.7044451237
32.200000763;-1.731602788
32.25;-1.7644213438
32.299999237;-1.8007771969
32.349998474;-1.8384231329
32.400001526;-1.8687585592
32.450000763;-1.8952801228
32.5;-1.9097276926
32.549999237;-1.9090932608
32.599998474;-1.9129866362
32.650001526;-1.8975931406
32.700000763;-1.8893897533
32.75;-1.8762458563
32.799999237;-1.8533713818
32.849998474;-1.8226861954
32.900001526;-1.7721797228
32.950000763;-1.7361125946
33.0;-1.6983716488
33.049999237;-1.685354948
33.099998474;-1.6793370247
33.150001526;-1.6828737259
33.200000763;-1.6855463982
33.25;-1.6999255419
33.299999237;-1.7295566797
33.349998474;-1.7644262314
33.400001526;-1.8108496666
33.450000763;-1.8490502834
33.5;-1.883919239
33.549999237;-1.9157428741
33.599998474;-1.9420640469
33.650001526;-1.9810186625
33.700000763;-2.0099754333
33.75;-2.038533926
33.799999237;-2.0578632355
33.849998474;-2.0714056492
33.900001526;-2.0714049339
33.950000763;-2.0636456013
34.0;-2.0476949215
34.049999237;-2.0299458504
34.099998474;-2.0139214993
34.150001526;-2.0046825409
34.200000763;-1.9882488251
34.25;-1.9810739756
34.299999237;-1.9705668688
34.349998474;-1.9726382494
34.400001526;-1.9812203646
34.450000763;-2.0056641102
34.5;-2.0263867378
34.549999237;-2.0610759258
34.599998474;-2.0894362926
34.650001526;-2.1299276352
34.700000763;-2.1681885719
34.75;-2.2091944218
34.799999237;-2.2403786182
34.849998474;-2.2584147453
34.900001526;-2.2673094273
34.950000763;-2.2621548176
35.0;-2.2533218861
35.049999237;-2.240093708
35.099998474;-2.2215797901
35.150001526;-2.2041983604
35.200000763;-2.1781334877
35.25;-2.1500799656
35.299999237;-2.1197574139
35.349998474;-2.0883381367
35.400001526;-2.056552887
35.450000763;-2.0273864269
35.5;-2.0067996979
35.549999237;-1.9965265989
35.599998474;-1.9978734255
35.650001526;-2.0069150925
35.700000763;-2.0291545391
35.75;-2.0479712486
35.799999237;-2.0757694244
35.849998474;-2.0988333225
35.900001526;-2.1256892681
35.950000763;-2.1443412304
36.0;-2.1595411301
36.049999237;-2.166870594
36.099998474;-2.1715958118
36.150001526;-2.1721909046
36.200000763;-2.1726150513
36.25;-2.1686704159
36.299999237;-2.157156229
36.349998474;-2.1430609226
36.400001526;-2.1192281246
36.450000763;-2.0921654701
36.5;-2.0698723793
36.549999237;-2.0410985947
36.599998474;-2.0218009949
36.650001526;-2.0015587807
36.700000763;-1.9894448519
36.75;-1.9875589609
36.799999237;-1.9881515503
