Time [s];Force [kN]
0.0;0.0
0.049499999732;0.0
0.099500000477;0.0
0.1494999975;0.0
0.19949999452;0.0
0.24950000644;0.0
0.29949998856;0.0
0.34950000048;0.0
0.3995000124;0.0
0.44949999452;0.0
0.49950000644;-0.050594978034
0.55000001192;-0.37381857634
0.60000002384;-0.86914020777
0.64999997616;-1.2934910059
0.69999998808;-1.5851376057
0.75;-1.8522298336
0.80000001192;-2.0456774235
0.85000002384;-2.2047355175
0.89999997616;-2.2157337666
0.94999998808;-1.9309742451
1.0;-1.5735054016
1.0499999523;-1.2225836515
1.1000000238;-0.87958484888
1.1499999762;-0.52546489239
1.2000000477;-0.35074418783
1.25;-0.10177928954
1.2999999523;-0.00017315711011
1.3500000238;0.0
1.3999999762;0.0
1.4500000477;0.0
1.5;0.0
1.5499999523;0.0
1.6000000238;0.0
1.6499999762;0.0
1.7000000477;0.0
1.75;0.0
1.7999999523;-0.0022392517421
1.8500000238;-0.19727507234
1.8999999762;-0.33319541812
1.9500000477;-0.94742465019
2.0;-1.3472369909
2.0499999523;-1.8306776285
2.0999999046;-1.8367277384
2.1500000954;-1.7351077795
2.2000000477;-1.2249206305
2.25;-1.0419080257
2.2999999523;-0.81913805008
2.3499999046;-0.68228077888
2.4000000954;-0.61762100458
2.4500000477;-0.4364926219
2.4995000362;-0.2299401015
2.5494999886;-0.14737957716
2.5994999409;0.0
2.6494998932;-0.0087374104187
2.6995000839;0.0
2.7495000362;0.0
2.7994999886;0.0
2.8494999409;0.0
2.8994998932;0.0
2.9495000839;0.0
2.9995000362;0.0
3.0494999886;0.0
3.0994999409;0.0
3.1494998932;-0.22705356777
3.1995000839;-0.30212047696
3.2495000362;-0.68527168036
3.2994999886;-0.6351801157
3.3494999409;-1.006128788
3.3994998932;-1.0738072395
3.4495000839;-1.1975344419
3.4995000362;-1.2472769022
3.5494999886;-1.1114199162
3.5994999409;-1.0728210211
3.6494998932;-0.88778907061
3.6995000839;-0.76322817802
3.7495000362;-0.49814042449
3.7994999886;-0.21111221611
3.8494999409;-0.074540533125
3.8994998932;-0.0044488767162
3.9495000839;0.0
3.9995000362;0.0
4.0494999886;0.0
4.0995001793;0.0
4.1494998932;0.0
4.1995000839;0.0
4.2494997978;0.0
4.2994999886;0.0
4.3495001793;0.0
4.3994998932;-0.17927074432
4.4495000839;-0.17098128796
4.4994997978;-0.43436512351
4.5494999886;-0.55526924133
4.5995001793;-0.70844596624
4.6494998932;-0.89055126905
4.6995000839;-0.93514502048
4.7494997978;-1.0374667645
4.7994999886;-1.0242544413
4.8495001793;-0.99279719591
4.8994998932;-0.88055425882
4.9499998093;-0.76931923628
5.0;-0.61166405678
5.0500001907;-0.47035753727
5.0999999046;-0.27800247073
5.1500000954;-0.16705282032
5.1999998093;-0.045082051307
5.25;-0.029222887009
5.3000001907;-0.0013634740608
5.3499999046;0.0
5.4000000954;0.0
5.4499998093;0.0
5.5;0.0
5.5500001907;0.0
5.5999999046;-0.046181868762
5.6500000954;-0.1225387454
5.6999998093;-0.28121480346
5.75;-0.45462474227
5.8000001907;-0.63088142872
5.8499999046;-0.85340791941
5.9000000954;-0.95533257723
5.9499998093;-1.1170662642
6.0;-1.1596602201
6.0500001907;-1.2068080902
6.0999999046;-1.1906590462
6.1500000954;-1.1130591631
6.1999998093;-1.0011711121
6.25;-0.84802645445
6.3000001907;-0.69304889441
6.3499999046;-0.55282908678
6.4000000954;-0.36507096887
6.4499998093;-0.23220524192
6.5;-0.11234070361
6.5500001907;-0.04768525064
6.5999999046;-0.00019325599715
6.6500000954;0.0
6.6999998093;0.0
6.75;0.0
6.8000001907;-0.0052661141381
6.8499999046;-0.068429864943
6.9000000954;-0.1140210703
6.9499998093;-0.2924606204
7.0;-0.37642627954
7.0500001907;-0.61018556356
7.0999999046;-0.69645220041
7.1500000954;-0.86370187998
7.1999998093;-0.91912162304
7.25;-0.97153359652
7.3000001907;-0.98617362976
7.3499999046;-0.9165982604
7.4000000954;-0.86632525921
7.4499998093;-0.75562024117
7.5;-0.6172066927
7.5500001907;-0.49914395809
7.5999999046;-0.34052732587
7.6500000954;-0.23720918596
7.6999998093;-0.12395115942
7.75;-0.043384652585
7.8000001907;-0.02419635281
7.8499999046;-0.0011970753549
7.9000000954;0.0
7.9499998093;-0.018605122343
8.0;-0.040456332266
8.0500001907;-0.098213501275
8.1000003815;-0.22558577359
8.1499996185;-0.36339610815
8.1999998093;-0.49636796117
8.25;-0.67189031839
8.3000001907;-0.81196600199
8.3500003815;-0.9497628808
8.3999996185;-1.0610493422
8.4499998093;-1.1118508577
8.5;-1.1374932528
8.5500001907;-1.1251040697
8.6000003815;-1.0553919077
8.6499996185;-0.98210561275
8.6999998093;-0.84872430563
8.75;-0.72441703081
8.8000001907;-0.59719085693
8.8500003815;-0.46391746402
8.8999996185;-0.35611969233
8.9499998093;-0.25310784578
9.0;-0.18913246691
9.0500001907;-0.1458375603
9.1000003815;-0.14075146616
9.1499996185;-0.16148471832
9.1999998093;-0.21755212545
9.25;-0.30527234077
9.3000001907;-0.40292337537
9.3500003815;-0.55070251226
9.3999996185;-0.67473804951
9.4495000839;-0.8230073452
9.4995002747;-0.96369802952
9.5495004654;-1.0858137608
9.5994997025;-1.1864314079
9.6494998932;-1.2558909655
9.6995000839;-1.2974764109
9.7495002747;-1.2974604368
9.7995004654;-1.2677550316
9.8494997025;-1.1948568821
9.8994998932;-1.1136671305
9.9495000839;-0.99029642344
9.9995002747;-0.88124918938
10.049500465;-0.74051678181
10.099499702;-0.63410824537
10.149499893;-0.51664233208
10.199500084;-0.43751469254
10.249500275;-0.38151204586
10.299500465;-0.33588978648
10.349499702;-0.33948835731
10.399499893;-0.35186064243
10.449500084;-0.39091339707
10.499500275;-0.46928954124
10.549500465;-0.54003214836
10.599499702;-0.64701592922
10.649499893;-0.74615603685
10.699500084;-0.82791775465
10.749500275;-0.91942417622
10.799500465;-0.9447645545
10.849499702;-0.99504178762
10.899499893;-0.95828896761
10.949500084;-0.93647360802
10.999500275;-0.86105954647
11.049500465;-0.77683442831
11.099499702;-0.69727808237
11.149499893;-0.60074478388
11.199500084;-0.51226145029
11.249500275;-0.40608927608
11.299500465;-0.31810468435
11.349499702;-0.21628208458
11.399499893;-0.16174700856
11.449500084;-0.10579705983
11.499500275;-0.0926797539
11.549500465;-0.087568193674
11.599499702;-0.098300129175
11.649499893;-0.11931930482
11.699500084;-0.16840155423
11.749500275;-0.2142277807
11.799500465;-0.31726905704
11.849499702;-0.38192620873
11.899499893;-0.51947116852
11.949500084;-0.60694164038
11.999500275;-0.71497666836
12.049500465;-0.78885966539
12.099499702;-0.84839963913
12.149499893;-0.8655269146
12.199500084;-0.8642180562
12.249500275;-0.82827806473
12.299500465;-0.77348333597
12.349499702;-0.69752120972
12.399499893;-0.61278837919
12.449500084;-0.5124040246
12.499500275;-0.41414555907
12.549500465;-0.33166411519
12.599499702;-0.27308857441
12.649499893;-0.22358338535
12.699500084;-0.22071656585
12.749500275;-0.20150111616
12.799500465;-0.22911807895
12.849499702;-0.26911190152
12.899499893;-0.33289399743
12.949500084;-0.40862029791
12.999500275;-0.49335840344
13.049500465;-0.59142929316
13.099499702;-0.69395893812
13.149499893;-0.78482490778
13.199500084;-0.88935118914
13.249500275;-0.95473968983
13.299500465;-1.0108298063
13.349499702;-1.0286375284
13.399499893;-1.0253528357
13.449500084;-0.99609291553
13.499500275;-0.94880151749
13.549500465;-0.89006060362
13.599499702;-0.82133114338
13.649499893;-0.74575930834
13.699500084;-0.67853713036
13.749500275;-0.61247497797
13.799500465;-0.56237655878
13.849499702;-0.52689671516
13.899499893;-0.50024956465
13.949500084;-0.49410480261
13.999500275;-0.50668883324
14.049500465;-0.52609986067
14.099499702;-0.57474219799
14.149499893;-0.61692607403
14.199500084;-0.68271636963
14.249500275;-0.75802230835
14.299500465;-0.83472728729
14.349499702;-0.91526544094
14.399499893;-0.98476433754
14.449500084;-1.0232043266
14.499500275;-1.0573614836
14.549500465;-1.0382807255
14.599499702;-1.021915555
14.649499893;-0.96379262209
14.699500084;-0.88521981239
14.749500275;-0.79633927345
14.799500465;-0.67961782217
14.849499702;-0.56292676926
14.899499893;-0.4373472631
14.949500084;-0.30874541402
14.999500275;-0.22064389288
15.049500465;-0.17392769456
15.099499702;-0.15350410342
15.149499893;-0.15517430007
15.199500084;-0.16039633751
15.249500275;-0.17048211396
15.299500465;-0.1930000782
15.349499702;-0.24137948453
15.399499893;-0.27472996712
15.449500084;-0.32104814053
15.499500275;-0.37652593851
15.549500465;-0.40304145217
15.599499702;-0.45978665352
15.649499893;-0.4766151607
15.699500084;-0.50718683004
15.749500275;-0.51677161455
15.799500465;-0.5280751586
15.849499702;-0.50608432293
15.899499893;-0.4892051518
15.949500084;-0.45243600011
15.999500275;-0.40195888281
16.049499512;-0.36321717501
16.099500656;-0.31201273203
16.149499893;-0.27502518892
16.19949913;-0.24330434203
16.249500275;-0.22998794913
16.299499512;-0.20371814072
16.349500656;-0.20692244172
16.399499893;-0.19975957274
16.44949913;-0.20528970659
16.499500275;-0.22055999935
16.549499512;-0.242405653
16.599500656;-0.27343976498
16.649499893;-0.32541516423
16.69949913;-0.37395301461
16.749500275;-0.41597497463
16.799499512;-0.476092875
16.849500656;-0.51156014204
16.899499893;-0.54821074009
16.94949913;-0.57291930914
16.999500275;-0.57747215033
17.049499512;-0.57162183523
17.099500656;-0.55675774813
17.149499893;-0.51918274164
17.19949913;-0.4817250073
17.249500275;-0.44389128685
17.299499512;-0.39795640111
17.349500656;-0.36343848705
17.399499893;-0.33044594526
17.44949913;-0.29161185026
17.499500275;-0.27634125948
17.549499512;-0.26677057147
17.599500656;-0.25953629613
17.649499893;-0.27008271217
17.69949913;-0.28754878044
17.749500275;-0.30526575446
17.799499512;-0.34555125237
17.849500656;-0.37376689911
17.899499893;-0.42160239816
17.94949913;-0.47027105093
17.999500275;-0.5263004899
18.049499512;-0.5786088109
18.099500656;-0.6346501112
18.149499893;-0.66630321741
18.19949913;-0.69213956594
18.249500275;-0.68770676851
18.299499512;-0.66577714682
18.349500656;-0.62007194757
18.399499893;-0.56093937159
18.44949913;-0.47792166471
18.499500275;-0.39032849669
18.549499512;-0.29972609878
18.599500656;-0.2120180279
18.649499893;-0.14388637245
18.69949913;-0.12294047326
18.749500275;-0.11007215828
18.799499512;-0.11417055875
18.849500656;-0.12815447152
18.899499893;-0.13452756405
18.94949913;-0.14384107292
18.999500275;-0.16995458305
19.049499512;-0.19020840526
19.099500656;-0.20190800726
19.149499893;-0.22979806364
19.19949913;-0.24709615111
19.249500275;-0.26563841105
19.299499512;-0.280351758
19.349500656;-0.28461709619
19.399999619;-0.28802657127
19.450000763;-0.28199028969
19.5;-0.27541559935
19.549999237;-0.26303523779
19.600000381;-0.24845908582
19.649999619;-0.22640477121
19.700000763;-0.21226620674
19.75;-0.18639045954
19.799999237;-0.16897276044
19.850000381;-0.14772902429
19.899999619;-0.13366465271
19.950000763;-0.11948158592
20.0;-0.11263494939
20.049999237;-0.11085876077
20.100000381;-0.11180727184
20.149999619;-0.11769931018
20.200000763;-0.13069678843
20.25;-0.14280156791
20.299999237;-0.16072557867
20.350000381;-0.18081562221
20.399999619;-0.20280610025
20.450000763;-0.22001096606
20.5;-0.23889002204
20.549999237;-0.24949881434
20.600000381;-0.25780761242
20.649999619;-0.25286152959
20.700000763;-0.25018969178
20.75;-0.24029530585
20.799999237;-0.22402854264
20.850000381;-0.21277570724
20.899999619;-0.1933452636
20.950000763;-0.1591745466
21.0;-0.13641290367
21.049999237;-0.1028810516
21.100000381;-0.082930952311
21.149999619;-0.071258500218
21.200000763;-0.066619962454
21.25;-0.062156442553
21.299999237;-0.065859436989
21.350000381;-0.069384142756
21.399999619;-0.078659750521
21.450000763;-0.090145103633
21.5;-0.10612335056
21.549999237;-0.13297908008
21.600000381;-0.16269314289
21.649999619;-0.1912214458
21.700000763;-0.21979245543
21.75;-0.24090906978
21.799999237;-0.25723409653
21.850000381;-0.27736255527
21.899999619;-0.28282985091
21.950000763;-0.29473590851
22.0;-0.29226309061
22.049999237;-0.29253879189
22.100000381;-0.28509312868
22.149999619;-0.27845811844
22.200000763;-0.26590105891
22.25;-0.2533878386
22.299999237;-0.23531574011
22.350000381;-0.22305975854
22.399999619;-0.20652016997
22.450000763;-0.19569188356
22.5;-0.17974025011
22.549999237;-0.16985359788
22.600000381;-0.17153009772
22.649999619;-0.17988348007
22.700000763;-0.18835562468
22.75;-0.20697687566
22.799999237;-0.22649240494
22.850000381;-0.24555414915
22.899999619;-0.26945132017
22.950000763;-0.28956830502
23.0;-0.30176410079
23.049999237;-0.31896328926
23.100000381;-0.33116084337
23.149999619;-0.33050021529
23.200000763;-0.33226850629
23.25;-0.32329756021
23.299999237;-0.308781147
23.350000381;-0.29675456882
23.399999619;-0.2741985321
23.450000763;-0.25362947583
23.5;-0.22773173451
23.549999237;-0.20686751604
23.600000381;-0.18567577004
23.649999619;-0.17292252183
23.700000763;-0.16516676545
23.75;-0.16326616704
23.799999237;-0.16395506263
23.850000381;-0.16606500745
23.899999619;-0.17280380428
23.950000763;-0.18202018738
24.0;-0.19484981894
24.049999237;-0.20637215674
24.100000381;-0.2216270119
24.149999619;-0.23631770909
24.200000763;-0.25169795752
24.25;-0.26911813021
24.299999237;-0.2786360383
24.350000381;-0.28727576137
24.399999619;-0.28725522757
24.450000763;-0.28409644961
24.5;-0.2735016644
24.549999237;-0.26094129682
24.600000381;-0.23913700879
24.649999619;-0.22257421911
24.700000763;-0.20358677208
24.75;-0.19144938886
24.799999237;-0.18228180707
24.850000381;-0.17447383702
24.899999619;-0.17312854528
24.950000763;-0.1732750386
25.0;-0.1823759675
25.049999237;-0.18868198991
25.100000381;-0.19659247994
25.149999619;-0.20710246265
25.200000763;-0.21864572167
25.25;-0.23651824892
25.299999237;-0.25603958964
25.350000381;-0.27356681228
25.399999619;-0.29930046201
25.450000763;-0.31890955567
25.5;-0.34054890275
25.549999237;-0.36257115006
25.600000381;-0.38071614504
25.649999619;-0.40011817217
25.700000763;-0.41511297226
25.75;-0.41430962086
25.799999237;-0.41253346205
25.850000381;-0.40418416262
25.899999619;-0.39652058482
25.950000763;-0.38472804427
26.0;-0.37921828032
26.049999237;-0.36081954837
26.100000381;-0.36051052809
26.149999619;-0.349352777
26.200000763;-0.35206207633
26.25;-0.35503736138
26.299999237;-0.36396253109
26.350000381;-0.38101303577
26.399999619;-0.39501753449
26.450000763;-0.41387593746
26.5;-0.43279588223
26.549999237;-0.45793282986
26.600000381;-0.48233041167
26.649999619;-0.5068962574
26.700000763;-0.53560853004
26.75;-0.55768162012
26.799999237;-0.58120495081
26.850000381;-0.59094613791
26.899999619;-0.59624928236
26.950000763;-0.59161347151
27.0;-0.58892124891
27.049999237;-0.58194535971
27.100000381;-0.58390885592
27.149999619;-0.57648020983
27.200000763;-0.56630975008
27.25;-0.54903841019
27.299999237;-0.53257316351
27.350000381;-0.52236074209
27.399999619;-0.52192467451
27.450000763;-0.52833390236
27.5;-0.53754043579
27.549999237;-0.55098712444
27.600000381;-0.56784516573
27.649999619;-0.59405463934
27.700000763;-0.62656676769
27.75;-0.66577845812
27.799999237;-0.70353466272
27.850000381;-0.74275517464
27.899999619;-0.78199243546
27.950000763;-0.81323570013
28.0;-0.82934510708
28.049999237;-0.84510779381
28.100000381;-0.8431199789
28.149999619;-0.84421032667
28.200000763;-0.84657382965
28.25;-0.83459019661
28.299999237;-0.82505106926
28.350000381;-0.80615454912
28.399999619;-0.78811526299
28.450000763;-0.77532219887
28.5;-0.7588262558
28.549999237;-0.74507147074
28.600000381;-0.72940534353
28.649999619;-0.71856337786
28.700000763;-0.71639120579
28.75;-0.72911310196
28.799999237;-0.75371146202
28.850000381;-0.78514182568
28.899999619;-0.81231975555
28.950000763;-0.84371834993
29.0;-0.86986619234
29.049999237;-0.90403705835
29.100000381;-0.93632030487
29.149999619;-0.96299684048
29.200000763;-0.98789292574
29.25;-1.0080451965
29.299999237;-1.0316135883
29.350000381;-1.0400009155
29.399999619;-1.0474274158
29.450000763;-1.0472103357
29.5;-1.0461256504
29.549999237;-1.0411260128
29.600000381;-1.0395715237
29.649999619;-1.0346888304
29.700000763;-1.0229839087
29.75;-1.0194944143
29.799999237;-1.0241988897
29.850000381;-1.0396746397
29.899999619;-1.0606527328
29.950000763;-1.0848300457
30.0;-1.1091549397
30.049999237;-1.141067028
30.100000381;-1.1761438847
30.149999619;-1.2218704224
30.200000763;-1.268378973
30.25;-1.3183131218
30.299999237;-1.3639969826
30.350000381;-1.4043623209
30.399999619;-1.4425309896
30.450000763;-1.4758211374
30.5;-1.5098562241
30.549999237;-1.5223959684
30.600000381;-1.5369610786
30.649999619;-1.535299778
30.700000763;-1.5350887775
30.75;-1.5359671116
30.799999237;-1.5314457417
30.850000381;-1.529856205
30.899999619;-1.525737524
30.950000763;-1.5309532881
31.0;-1.540389657
31.049999237;-1.5521748066
31.100000381;-1.5666831732
31.149999619;-1.581581831
31.200000763;-1.5993651152
31.25;-1.6288387775
31.299999237;-1.6595699787
31.350000381;-1.6965297461
31.399999619;-1.727435112
31.450000763;-1.7484785318
31.5;-1.7681214809
31.549999237;-1.785543561
31.600000381;-1.8059315681
31.649999619;-1.824942112
31.700000763;-1.8330562115
31.75;-1.8377586603
31.799999237;-1.8346146345
31.850000381;-1.8268676996
31.899999619;-1.8177742958
31.950000763;-1.7986607552
32.0;-1.7757428885
32.049999237;-1.7513321638
32.099998474;-1.7330120802
32.150001526;-1.7212529182
32.200000763;-1.7092727423
32.25;-1.7112115622
32.299999237;-1.7097330093
32.349998474;-1.7192761898
32.400001526;-1.7350852489
32.450000763;-1.7565793991
32.5;-1.767780304
32.549999237;-1.7908896208
32.599998474;-1.8039752245
32.650001526;-1.8320931196
32.700000763;-1.8613396883
32.75;-1.8915768862
32.799999237;-1.9062706232
32.849998474;-1.9106162786
32.900001526;-1.8956077099
32.950000763;-1.8852249384
33.0;-1.8752957582
33.049999237;-1.8634742498
33.099998474;-1.8464113474
33.150001526;-1.8097499609
33.200000763;-1.7772319317
33.25;-1.7448743582
33.299999237;-1.7242299318
33.349998474;-1.7201133966
33.400001526;-1.7257705927
33.450000763;-1.7382181883
33.5;-1.7463880777
33.549999237;-1.7664048672
33.599998474;-1.78520751
33.650001526;-1.818911314
33.700000763;-1.8536777496
33.75;-1.8971217871
33.799999237;-1.9363665581
33.849998474;-1.9752782583
33.900001526;-2.0037033558
33.950000763;-2.0275886059
34.0;-2.0460085869
34.049999237;-2.0656762123
34.099998474;-2.0763776302
34.150001526;-2.0854961872
34.200000763;-2.0758364201
34.25;-2.0660557747
34.299999237;-2.0448174477
34.349998474;-2.0307743549
34.400001526;-2.0111553669
34.450000763;-2.0003526211
34.5;-1.9844325781
34.549999237;-1.9733638763
34.599998474;-1.9634418488
34.650001526;-1.963971138
34.700000763;-1.9718161821
34.75;-1.9879459143
34.799999237;-2.0054793358
34.849998474;-2.0233740807
34.900001526;-2.0416612625
34.950000763;-2.0571947098
35.0;-2.0719070435
35.049999237;-2.0922708511
35.099998474;-2.1025192738
35.150001526;-2.1236362457
35.200000763;-2.1286756992
35.25;-2.1300137043
35.299999237;-2.127597332
35.349998474;-2.1043772697
35.400001526;-2.0906288624
35.450000763;-2.0533504486
35.5;-2.0262336731
35.549999237;-1.9910092354
35.599998474;-1.9600600004
35.650001526;-1.9362181425
35.700000763;-1.9145641327
35.75;-1.8992407322
35.799999237;-1.8900523186
35.849998474;-1.8873673677
35.900001526;-1.8896855116
35.950000763;-1.8945782185
36.0;-1.9013659954
36.049999237;-1.909632206
36.099998474;-1.9265784025
36.150001526;-1.9455658197
36.200000763;-1.9692440033
36.25;-1.9856277704
36.299999237;-2.0043334961
36.349998474;-2.0129179955
36.400001526;-2.0221822262
36.450000763;-2.0167384148
36.5;-2.0126276016
36.549999237;-1.9945414066
36.599998474;-1.9765310287
36.650001526;-1.959322691
36.700000763;-1.9369527102
36.75;-1.9128789902
36.799999237;-1.88532722
36.849998474;-1.8569670916
36.900001526;-1.8189959526
36.950000763;-1.7830625772
