Time [s];Force [kN]
0.0;0.0
0.049499999732;0.0
0.099500000477;0.0
0.1494999975;0.0
0.19949999452;0.0
0.24950000644;0.0
0.29949998856;0.0
0.34950000048;0.0
0.3995000124;0.0
0.44949999452;0.0
0.49950000644;-0.050594978034
0.55000001192;-0.37381857634
0.60000002384;-0.86914020777
0.64999997616;-1.2934910059
0.69999998808;-1.5851376057
0.75;-1.8522298336
0.80000001192;-2.0456774235
0.85000002384;-2.2047355175
0.89999997616;-2.2157337666
0.94999998808;-1.9309742451
1.0;-1.5735054016
1.0499999523;-1.2225836515
1.1000000238;-0.87958484888
1.1499999762;-0.52546489239
1.2000000477;-0.35074418783
1.25;-0.10177928954
1.2999999523;-0.00017315711011
1.3500000238;0.0
1.3999999762;0.0
1.4500000477;0.0
1.5;0.0
1.5499999523;0.0
1.6000000238;0.0
1.6499999762;0.0
1.7000000477;0.0
1.75;0.0
1.7999999523;-0.0022392517421
1.8500000238;-0.19727507234
1.8999999762;-0.33319541812
1.9500000477;-0.94742465019
2.0;-1.3472369909
2.0499999523;-1.8306776285
2.0999999046;-1.8361266851
2.1500000954;-1.7353448868
2.2000000477;-1.2239222527
2.25;-1.0421561003
2.2999999523;-0.817715168
2.3499999046;-0.67974871397
2.4000000954;-0.61290752888
2.4500000477;-0.43402203918
2.4995000362;-0.22679850459
2.5494999886;-0.14392203093
2.5994999409;0.0
2.6494998932;-0.0071404576302
2.6995000839;0.0
2.7495000362;0.0
2.7994999886;0.0
2.8494999409;0.0
2.8994998932;0.0
2.9495000839;0.0
2.9995000362;0.0
3.0494999886;0.0
3.0994999409;0.0
3.1494998932;-0.19843195379
3.1995000839;-0.27431327105
3.2495000362;-0.64727085829
3.2994999886;-0.59865951538
3.3494999409;-0.97525894642
3.3994998932;-1.0434085131
3.4495000839;-1.169346571
3.4995000362;-1.2257201672
3.5494999886;-1.0850340128
3.5994999409;-1.0330615044
3.6494998932;-0.88850915432
3.6995000839;-0.74112612009
3.7495000362;-0.49225464463
3.7994999886;-0.20199172199
3.8494999409;-0.060458038002
3.8994998932;-0.0018101354362
3.9495000839;0.0
3.9995000362;0.0
4.0494999886;0.0
4.0995001793;0.0
4.1494998932;0.0
4.1995000839;0.0
4.2494997978;0.0
4.2994999886;0.0
4.3495001793;0.0
4.3994998932;-0.11466106027
4.4495000839;-0.16688334942
4.4994997978;-0.33333778381
4.5494999886;-0.49245324731
4.5995001793;-0.65403062105
4.6494998932;-0.80281484127
4.6995000839;-0.88081759214
4.7494997978;-0.95041656494
4.7994999886;-0.95222645998
4.8495001793;-0.94592767954
4.8994998932;-0.8254031539
4.9499998093;-0.74326086044
5.0;-0.61570310593
5.0500001907;-0.47505369782
5.0999999046;-0.28846651316
5.1500000954;-0.18172393739
5.1999998093;-0.046840026975
5.25;-0.01455937326
5.3000001907;-2.3633064927e-07
5.3499999046;0.0
5.4000000954;0.0
5.4499998093;0.0
5.5;0.0
5.5500001907;0.0
5.5999999046;0.0
5.6500000954;-0.033497404307
5.6999998093;-0.14551664889
5.75;-0.2886646986
5.8000001907;-0.47062057257
5.8499999046;-0.69573873281
5.9000000954;-0.80965310335
5.9499998093;-0.99298453331
6.0;-1.0624637604
6.0500001907;-1.1322072744
6.0999999046;-1.1371705532
6.1500000954;-1.0882828236
6.1999998093;-1.0062025785
6.25;-0.85061097145
6.3000001907;-0.72680616379
6.3499999046;-0.59630143642
6.4000000954;-0.39674544334
6.4499998093;-0.28605100513
6.5;-0.14236813784
6.5500001907;-0.033776979893
6.5999999046;-0.013393175788
6.6500000954;0.0
6.6999998093;0.0
6.75;0.0
6.8000001907;0.0
6.8499999046;0.0
6.9000000954;-0.0080308839679
6.9499998093;-0.10788542032
7.0;-0.17627719045
7.0500001907;-0.37514272332
7.0999999046;-0.49090883136
7.1500000954;-0.69402396679
7.1999998093;-0.76620995998
7.25;-0.87522083521
7.3000001907;-0.91274398565
7.3499999046;-0.89970046282
7.4000000954;-0.86302435398
7.4499998093;-0.78853881359
7.5;-0.67155492306
7.5500001907;-0.56610590219
7.5999999046;-0.39635550976
7.6500000954;-0.31184768677
7.6999998093;-0.14985713363
7.75;-0.069763414562
7.8000001907;-0.011657222174
7.8499999046;0.0
7.9000000954;0.0
7.9499998093;0.0
8.0;0.0
8.0500001907;0.0
8.1000003815;-0.024142470211
8.1499996185;-0.15124374628
8.1999998093;-0.20965111256
8.25;-0.41078874469
8.3000001907;-0.54667812586
8.3500003815;-0.70425254107
8.3999996185;-0.82849907875
8.4499998093;-0.93563616276
8.5;-1.0011571646
8.5500001907;-1.0501368046
8.6000003815;-1.0394506454
8.6499996185;-1.002322793
8.6999998093;-0.90455895662
8.75;-0.7913941741
8.8000001907;-0.66826158762
8.8500003815;-0.52531552315
8.8999996185;-0.38605946302
8.9499998093;-0.26061394811
9.0;-0.15794606507
9.0500001907;-0.077542990446
9.1000003815;-0.043964665383
9.1499996185;-0.027597591281
9.1999998093;-0.034283090383
9.25;-0.1065992564
9.3000001907;-0.16395564377
9.3500003815;-0.28794035316
9.3999996185;-0.4142408669
9.4495000839;-0.55788481236
9.4995002747;-0.71710276604
9.5495004654;-0.85027301311
9.5994997025;-0.97852486372
9.6494998932;-1.0816873312
9.6995000839;-1.1574434042
9.7495002747;-1.2028623819
9.7995004654;-1.2148246765
9.8494997025;-1.1806459427
9.8994998932;-1.1257338524
9.9495000839;-1.0427201986
9.9995002747;-0.92531144619
10.049500465;-0.80373132229
10.099499702;-0.68279671669
10.149499893;-0.55846941471
10.199500084;-0.46966412663
10.249500275;-0.37507924438
10.299500465;-0.32045134902
10.349499702;-0.28202646971
10.399499893;-0.27396547794
10.449500084;-0.29843452573
10.499500275;-0.34759554267
10.549500465;-0.41008868814
10.599499702;-0.50401502848
10.649499893;-0.59155386686
10.699500084;-0.69519108534
10.749500275;-0.78898060322
10.799500465;-0.8737462759
10.849499702;-0.94049143791
10.899499893;-0.95938891172
10.949500084;-0.96442914009
10.999500275;-0.9070405364
11.049500465;-0.85083180666
11.099499702;-0.72720843554
11.149499893;-0.62259250879
11.199500084;-0.48588898778
11.249500275;-0.3955218792
11.299500465;-0.30153873563
11.349499702;-0.22037285566
11.399499893;-0.15809689462
11.449500084;-0.095404446125
11.499500275;-0.056760009378
11.549500465;-0.043459527194
11.599499702;-0.028373813257
11.649499893;-0.036095108837
11.699500084;-0.055595964193
11.749500275;-0.090810187161
11.799500465;-0.14949353039
11.849499702;-0.19998860359
11.899499893;-0.28758555651
11.949500084;-0.36209139228
11.999500275;-0.4489595592
12.049500465;-0.53349256516
12.099499702;-0.59982997179
12.149499893;-0.64598321915
12.199500084;-0.67825472355
12.249500275;-0.68577408791
12.299500465;-0.66402673721
12.349499702;-0.63023024797
12.399499893;-0.56550335884
12.449500084;-0.50135749578
12.499500275;-0.41143235564
12.549500465;-0.34519124031
12.599499702;-0.2473782748
12.649499893;-0.1949454546
12.699500084;-0.13598243892
12.749500275;-0.10345497727
12.799500465;-0.10273224115
12.849499702;-0.095521613955
12.899499893;-0.11934731901
12.949500084;-0.15713885427
12.999500275;-0.20814207196
13.049500465;-0.2862521708
13.099499702;-0.37222743034
13.149499893;-0.46331346035
13.199500084;-0.54951566458
13.249500275;-0.64793175459
13.299500465;-0.71820306778
13.349499702;-0.79297065735
13.399499893;-0.83089131117
13.449500084;-0.85438758135
13.499500275;-0.85336863995
13.549500465;-0.83339744806
13.599499702;-0.78479152918
13.649499893;-0.73225814104
13.699500084;-0.65238857269
13.749500275;-0.57579046488
13.799500465;-0.49998906255
13.849499702;-0.42651543021
13.899499893;-0.36996763945
13.949500084;-0.33176493645
13.999500275;-0.31947442889
14.049500465;-0.32419493794
14.099499702;-0.35890498757
14.149499893;-0.40061920881
14.199500084;-0.46347799897
14.249500275;-0.53864240646
14.299500465;-0.61305260658
14.349499702;-0.69427371025
14.399499893;-0.76948642731
14.449500084;-0.83512276411
14.499500275;-0.89741009474
14.549500465;-0.92881238461
14.599499702;-0.95500564575
14.649499893;-0.94469285011
14.699500084;-0.92429465055
14.749500275;-0.86559730768
14.799500465;-0.79683595896
14.849499702;-0.69703614712
14.899499893;-0.59444731474
14.949500084;-0.48047715425
14.999500275;-0.37264168262
15.049500465;-0.25879663229
15.099499702;-0.17236593366
15.149499893;-0.078034065664
15.199500084;-0.04619557783
15.249500275;-0.040365949273
15.299500465;-0.041172724217
15.349499702;-0.073760174215
15.399499893;-0.096922054887
15.449500084;-0.12258776277
15.499500275;-0.17458891869
15.549500465;-0.21757049859
15.599499702;-0.26727211475
15.649499893;-0.30838513374
15.699500084;-0.36617019773
15.749500275;-0.38665670156
15.799500465;-0.41644924879
15.849499702;-0.43225249648
15.899499893;-0.4190723896
15.949500084;-0.41982522607
15.999500275;-0.37647631764
16.049499512;-0.34772890806
16.099500656;-0.29706329107
16.149499893;-0.25144138932
16.19949913;-0.20967331529
16.249500275;-0.16340668499
16.299499512;-0.12913352251
16.349500656;-0.10722790658
16.399499893;-0.08530806005
16.44949913;-0.081028059125
16.499500275;-0.082883134484
16.549499512;-0.094906955957
16.599500656;-0.1147743687
16.649499893;-0.14755640924
16.69949913;-0.18165116012
16.749500275;-0.22731146216
16.799499512;-0.27091664076
16.849500656;-0.31740951538
16.899499893;-0.3648263514
16.94949913;-0.40799477696
16.999500275;-0.44569548965
17.049499512;-0.46058562398
17.099500656;-0.46487697959
17.149499893;-0.44661283493
17.19949913;-0.42474502325
17.249500275;-0.39408859611
17.299499512;-0.35298871994
17.349500656;-0.30130904913
17.399499893;-0.26297292113
17.44949913;-0.21377180517
17.499500275;-0.17554891109
17.549499512;-0.14248764515
17.599500656;-0.12289728969
17.649499893;-0.1127544567
17.69949913;-0.11688162386
17.749500275;-0.13481993973
17.799499512;-0.15517762303
17.849500656;-0.19127334654
17.899499893;-0.23644441366
17.94949913;-0.28310629725
17.999500275;-0.34098944068
18.049499512;-0.39353594184
18.099500656;-0.43967273831
18.149499893;-0.4757617116
18.19949913;-0.50878679752
18.249500275;-0.51853251457
18.299499512;-0.52132511139
18.349500656;-0.4993750751
18.399499893;-0.46787244081
18.44949913;-0.42260873318
18.499500275;-0.37574857473
18.549499512;-0.31226208806
18.599500656;-0.24835203588
18.649499893;-0.175257653
18.69949913;-0.10734108835
18.749500275;-0.042731877416
18.799499512;-0.0094346534461
18.849500656;0.0
18.899499893;0.0
18.94949913;0.0
18.999500275;0.0
19.049499512;0.0
19.099500656;-0.0021802659612
19.149499893;-0.027246963233
19.19949913;-0.056130196899
19.249500275;-0.086679264903
19.299499512;-0.12862685323
19.349500656;-0.15944363177
19.399999619;-0.1783798486
19.450000763;-0.20246778429
19.5;-0.21596381068
19.549999237;-0.22817023098
19.600000381;-0.23020286858
19.649999619;-0.22223897278
19.700000763;-0.20525188744
19.75;-0.17948038876
19.799999237;-0.15639334917
19.850000381;-0.12439368665
19.899999619;-0.096618793905
19.950000763;-0.065142914653
20.0;-0.046660270542
20.049999237;-0.032280307263
20.100000381;-0.025857629254
20.149999619;-0.024348754436
20.200000763;-0.028152301908
20.25;-0.036050267518
20.299999237;-0.047352682799
20.350000381;-0.061633333564
20.399999619;-0.085204511881
20.450000763;-0.10936266184
20.5;-0.14267647266
20.549999237;-0.16887111962
20.600000381;-0.19599232078
20.649999619;-0.21726684272
20.700000763;-0.23701524734
20.75;-0.24533037841
20.799999237;-0.24900814891
20.850000381;-0.24586850405
20.899999619;-0.22969245911
20.950000763;-0.21519351006
21.0;-0.18686044216
21.049999237;-0.15456011891
21.100000381;-0.12598089874
21.149999619;-0.090266644955
21.200000763;-0.064535722136
21.25;-0.044580124319
21.299999237;-0.029324637726
21.350000381;-0.023863287643
21.399999619;-0.02254717797
21.450000763;-0.019912157208
21.5;-0.017871916294
21.549999237;-0.032729670405
21.600000381;-0.047643806785
21.649999619;-0.062325194478
21.700000763;-0.082807019353
21.75;-0.097222186625
21.799999237;-0.11213104427
21.850000381;-0.1319077462
21.899999619;-0.14588826895
21.950000763;-0.15135593712
22.0;-0.15151149035
22.049999237;-0.14506945014
22.100000381;-0.12686671317
22.149999619;-0.10436011851
22.200000763;-0.079486660659
22.25;-0.061677601188
22.299999237;-0.042090106755
22.350000381;-0.03017404303
22.399999619;-0.01909340173
22.450000763;-0.011786776595
22.5;-0.0067748599686
22.549999237;-0.0060562458821
22.600000381;-0.0053282738663
22.649999619;-0.0088048893958
22.700000763;-0.011430034414
22.75;-0.027230663225
22.799999237;-0.040525753051
22.850000381;-0.060835365206
22.899999619;-0.085822038352
22.950000763;-0.11374793202
23.0;-0.14481905103
23.049999237;-0.16951310635
23.100000381;-0.19636504352
23.149999619;-0.21590414643
23.200000763;-0.23045381904
23.25;-0.24205572903
23.299999237;-0.24003283679
23.350000381;-0.23164625466
23.399999619;-0.22323787212
23.450000763;-0.21262180805
23.5;-0.1943589747
23.549999237;-0.17469677329
23.600000381;-0.14579121768
23.649999619;-0.12342847884
23.700000763;-0.096518568695
23.75;-0.078144602478
23.799999237;-0.060981366783
23.850000381;-0.055794853717
23.899999619;-0.054755203426
23.950000763;-0.060364749283
24.0;-0.070475816727
24.049999237;-0.080362461507
24.100000381;-0.10100954026
24.149999619;-0.11852096766
24.200000763;-0.13948753476
24.25;-0.16246679425
24.299999237;-0.1871073544
24.350000381;-0.20817171037
24.399999619;-0.22690735757
24.450000763;-0.24036836624
24.5;-0.24519343674
24.549999237;-0.24806879461
24.600000381;-0.24102047086
24.649999619;-0.23024739325
24.700000763;-0.21596688032
24.75;-0.20017299056
24.799999237;-0.17953799665
24.850000381;-0.1563950181
24.899999619;-0.13065600395
24.950000763;-0.11085514724
25.0;-0.090846322477
25.049999237;-0.08165628463
25.100000381;-0.072144307196
25.149999619;-0.074220299721
25.200000763;-0.073782481253
25.25;-0.07782804966
25.299999237;-0.079728774726
25.350000381;-0.085555918515
25.399999619;-0.10525494814
25.450000763;-0.11918736249
25.5;-0.13697710633
25.549999237;-0.16700968146
25.600000381;-0.17854221165
25.649999619;-0.18956911564
25.700000763;-0.19885584712
25.75;-0.18210749328
25.799999237;-0.16636811197
25.850000381;-0.13868123293
25.899999619;-0.10247130692
25.950000763;-0.069346152246
26.0;-0.053808867931
26.049999237;-0.04366452992
26.100000381;-0.03091722168
26.149999619;-0.025306057185
26.200000763;-0.017137864605
26.25;-0.014035081491
26.299999237;-0.0096552446485
26.350000381;-0.010105889291
26.399999619;-0.010477570817
26.450000763;-0.018140148371
26.5;-0.033787723631
26.549999237;-0.053093574941
26.600000381;-0.080006502569
26.649999619;-0.11119125038
26.700000763;-0.14264847338
26.75;-0.17567396164
26.799999237;-0.20499384403
26.850000381;-0.2356723547
26.899999619;-0.25558075309
26.950000763;-0.2745860219
27.0;-0.28095558286
27.049999237;-0.29107347131
27.100000381;-0.28660327196
27.149999619;-0.27555119991
27.200000763;-0.25652003288
27.25;-0.23619346321
27.299999237;-0.20481018722
27.350000381;-0.18658030033
27.399999619;-0.1654150635
27.450000763;-0.15276476741
27.5;-0.14567150176
27.549999237;-0.14355641603
27.600000381;-0.13486371934
27.649999619;-0.13629290462
27.700000763;-0.13842307031
27.75;-0.14829161763
27.799999237;-0.16268591583
27.850000381;-0.18387776613
27.899999619;-0.20287282765
27.950000763;-0.2247428745
28.0;-0.25039029121
28.049999237;-0.26539549232
28.100000381;-0.28927412629
28.149999619;-0.30592292547
28.200000763;-0.3195501864
28.25;-0.33457428217
28.299999237;-0.33442851901
28.350000381;-0.33583158255
28.399999619;-0.32949349284
28.450000763;-0.32475882769
28.5;-0.31479182839
28.549999237;-0.30203086138
28.600000381;-0.28860637546
28.649999619;-0.27480125427
28.700000763;-0.26050889492
28.75;-0.2482162416
28.799999237;-0.23556691408
28.850000381;-0.23295101523
28.899999619;-0.22681224346
28.950000763;-0.22936956584
29.0;-0.22917547822
29.049999237;-0.23608207703
29.100000381;-0.25340688229
29.149999619;-0.27246683836
29.200000763;-0.30229994655
29.25;-0.33561322093
29.299999237;-0.36405038834
29.350000381;-0.39459097385
29.399999619;-0.4131013155
29.450000763;-0.41632381082
29.5;-0.42815685272
29.549999237;-0.42271330953
29.600000381;-0.41900780797
29.649999619;-0.41060975194
29.700000763;-0.38343337178
29.75;-0.34727084637
29.799999237;-0.31438341737
29.850000381;-0.27572503686
29.899999619;-0.25978460908
29.950000763;-0.23670093715
30.0;-0.23275063932
30.049999237;-0.22281649709
30.100000381;-0.22341322899
30.149999619;-0.22943584621
30.200000763;-0.24381415546
30.25;-0.26613721251
30.299999237;-0.29699850082
30.350000381;-0.33366969228
30.399999619;-0.36453706026
30.450000763;-0.40290236473
30.5;-0.43104806542
30.549999237;-0.46766784787
30.600000381;-0.50264722109
30.649999619;-0.53366857767
30.700000763;-0.55517685413
30.75;-0.56447553635
30.799999237;-0.57105082273
30.850000381;-0.57026928663
30.899999619;-0.57343524694
30.950000763;-0.57200157642
31.0;-0.57247120142
31.049999237;-0.55992817879
31.100000381;-0.55614072084
31.149999619;-0.5360211134
31.200000763;-0.52881902456
31.25;-0.52174073458
31.299999237;-0.53547799587
31.350000381;-0.5516769886
31.399999619;-0.58955025673
31.450000763;-0.61741471291
31.5;-0.65598875284
31.549999237;-0.68084710836
31.600000381;-0.71831947565
31.649999619;-0.74293261766
31.700000763;-0.78467875719
31.75;-0.82380461693
31.799999237;-0.86011129618
31.850000381;-0.88789069653
31.899999619;-0.90318459272
31.950000763;-0.91673350334
32.0;-0.92452681065
32.049999237;-0.9290163517
32.099998474;-0.92687255144
32.150001526;-0.92562997341
32.200000763;-0.91990071535
32.25;-0.91410088539
32.299999237;-0.91159433126
32.349998474;-0.90635859966
32.400001526;-0.90737402439
32.450000763;-0.9114792347
32.5;-0.91189533472
32.549999237;-0.91463583708
32.599998474;-0.90769433975
32.650001526;-0.90369457006
32.700000763;-0.90630567074
32.75;-0.91350227594
32.799999237;-0.94840276241
32.849998474;-0.97119408846
32.900001526;-1.0101596117
32.950000763;-1.0239669085
33.0;-1.0489484072
33.049999237;-1.0531941652
33.099998474;-1.0673613548
33.150001526;-1.0757952929
33.200000763;-1.0865553617
33.25;-1.0903167725
33.299999237;-1.0871660709
33.349998474;-1.0687409639
33.400001526;-1.0418059826
33.450000763;-1.0076380968
33.5;-0.97652900219
33.549999237;-0.94972902536
33.599998474;-0.92994761467
33.650001526;-0.91421502829
33.700000763;-0.90186709166
33.75;-0.88673746586
33.799999237;-0.8705779314
33.849998474;-0.87499421835
33.900001526;-0.88138157129
33.950000763;-0.91247838736
34.0;-0.94472497702
34.049999237;-0.97699791193
34.099998474;-1.0025697947
34.150001526;-1.008420825
34.200000763;-1.0096387863
34.25;-1.0023263693
34.299999237;-0.99308782816
34.349998474;-0.98646241426
34.400001526;-0.9693531394
34.450000763;-0.95224529505
34.5;-0.93420475721
34.549999237;-0.92341309786
34.599998474;-0.91786241531
34.650001526;-0.92532289028
34.700000763;-0.92559355497
34.75;-0.9315943718
34.799999237;-0.9293794632
34.849998474;-0.93749445677
34.900001526;-0.94899076223
34.950000763;-0.96800166368
35.0;-0.98853939772
35.049999237;-1.0108507872
35.099998474;-1.0312077999
35.150001526;-1.0542895794
35.200000763;-1.065024972
35.25;-1.0798033476
35.299999237;-1.0887019634
35.349998474;-1.1136478186
35.400001526;-1.1392269135
35.450000763;-1.1764420271
35.5;-1.2060172558
35.549999237;-1.2290266752
35.599998474;-1.2424135208
35.650001526;-1.2437628508
35.700000763;-1.2509361506
35.75;-1.255335331
35.799999237;-1.2629780769
35.849998474;-1.2719185352
35.900001526;-1.2717392445
35.950000763;-1.2713696957
36.0;-1.262349844
36.049999237;-1.2525177002
36.099998474;-1.2358189821
36.150001526;-1.2269667387
36.200000763;-1.2127859592
36.25;-1.2062132359
36.299999237;-1.1971570253
36.349998474;-1.1969554424
36.400001526;-1.1994274855
36.450000763;-1.2105447054
36.5;-1.2297772169
36.549999237;-1.2432200909
36.599998474;-1.2580931187
36.650001526;-1.2661364079
36.700000763;-1.2706449032
36.75;-1.2747812271
36.799999237;-1.273720026
