Time [s];Force [kN]
0.0;0.0
0.049499999732;0.0
0.099500000477;0.0
0.1494999975;0.0
0.19949999452;0.0
0.24950000644;0.0
0.29949998856;0.0
0.34950000048;0.0
0.3995000124;0.0
0.44949999452;0.0
0.49950000644;-0.050534561276
0.55000001192;-0.37337955832
0.60000002384;-0.86766946316
0.64999997616;-1.2942847013
0.69999998808;-1.6098744869
0.75;-1.8370070457
0.80000001192;-2.0644600391
0.85000002384;-2.1900053024
0.89999997616;-2.2077524662
0.94999998808;-1.9301825762
1.0;-1.576800704
1.0499999523;-1.2195609808
1.1000000238;-0.90434008837
1.1499999762;-0.52956914902
1.2000000477;-0.35980296135
1.25;-0.080210469663
1.2999999523;-9.8607626569e-05
1.3500000238;0.0
1.3999999762;0.0
1.4500000477;0.0
1.5;0.0
1.5499999523;0.0
1.6000000238;0.0
1.6499999762;0.0
1.7000000477;0.0
1.75;0.0
1.7999999523;-0.0033716796897
1.8500000238;-0.26575782895
1.8999999762;-0.52275389433
1.9500000477;-1.0366864204
2.0;-1.4710841179
2.0499999523;-1.7918567657
2.0999999046;-1.8027484417
2.1500000954;-1.5030527115
2.2000000477;-1.2129973173
2.25;-0.90404653549
2.2999999523;-0.75541061163
2.3499999046;-0.7031404376
2.4000000954;-0.62690478563
2.4500000477;-0.41605344415
2.4995000362;-0.13853812218
2.5494999886;-0.14342053235
2.5994999409;0.0
2.6494998932;0.0
2.6995000839;0.0
2.7495000362;0.0
2.7994999886;0.0
2.8494999409;0.0
2.8994998932;0.0
2.9495000839;0.0
2.9995000362;0.0
3.0494999886;0.0
3.0994999409;-0.049556329846
3.1494998932;-0.14600722492
3.1995000839;-0.49055549502
3.2495000362;-0.65913385153
3.2994999886;-0.88565450907
3.3494999409;-0.9527375102
3.3994998932;-1.0898596048
3.4495000839;-1.145072937
3.4995000362;-1.1385787725
3.5494999886;-1.0381962061
3.5994999409;-0.8682101965
3.6494998932;-0.7794060111
3.6995000839;-0.45778819919
3.7495000362;-0.32069206238
3.7994999886;-0.085672661662
3.8494999409;0.0
3.8994998932;0.0
3.9495000839;0.0
3.9995000362;0.0
4.0494999886;0.0
4.0995001793;0.0
4.1494998932;0.0
4.1995000839;0.0
4.2494997978;0.0
4.2994999886;0.0
4.3495001793;-0.051322292536
4.3994998932;-0.12788160145
4.4495000839;-0.30319112539
4.4994997978;-0.48507988453
4.5494999886;-0.67988860607
4.5995001793;-0.78768885136
4.6494998932;-0.90696042776
4.6995000839;-0.9024091959
4.7494997978;-0.99111682177
4.7994999886;-0.89774662256
4.8495001793;-0.86134761572
4.8994998932;-0.73635601997
4.9499998093;-0.58868551254
5.0;-0.4459733665
5.0500001907;-0.28584602475
5.0999999046;-0.092195048928
5.1500000954;-0.0036711860448
5.1999998093;-0.0012533974368
5.25;0.0
5.3000001907;0.0
5.3499999046;0.0
5.4000000954;0.0
5.4499998093;0.0
5.5;0.0
5.5500001907;0.0
5.5999999046;-0.0084262918681
5.6500000954;-0.21368822455
5.6999998093;-0.3080842793
5.75;-0.53972804546
5.8000001907;-0.65975469351
5.8499999046;-0.83783167601
5.9000000954;-0.95371037722
5.9499998093;-1.017185688
6.0;-1.0915355682
6.0500001907;-1.0500110388
6.0999999046;-1.0192455053
6.1500000954;-0.91605824232
6.1999998093;-0.76978814602
6.25;-0.64258265495
6.3000001907;-0.45892772079
6.3499999046;-0.32946494222
6.4000000954;-0.19556684792
6.4499998093;-0.084786131978
6.5;-0.0092472499236
6.5500001907;0.0
6.5999999046;0.0
6.6500000954;0.0
6.6999998093;0.0
6.75;0.0
6.8000001907;-0.020118391141
6.8499999046;-0.13471268117
6.9000000954;-0.15792553127
6.9499998093;-0.32312455773
7.0;-0.42489644885
7.0500001907;-0.56229996681
7.0999999046;-0.72814875841
7.1500000954;-0.78417104483
7.1999998093;-0.82333219051
7.25;-0.89756304026
7.3000001907;-0.81004649401
7.3499999046;-0.79030805826
7.4000000954;-0.65953016281
7.4499998093;-0.5534081459
7.5;-0.40236285329
7.5500001907;-0.29811301827
7.5999999046;-0.12439310551
7.6500000954;-0.058742135763
7.6999998093;-0.0059312731028
7.75;0.0
7.8000001907;0.0
7.8499999046;0.0
7.9000000954;0.0
7.9499998093;0.0
8.0;0.0
8.0500001907;-0.029621617869
8.1000003815;-0.10818748921
8.1499996185;-0.25512480736
8.1999998093;-0.40956860781
8.25;-0.59692472219
8.3000001907;-0.70135009289
8.3500003815;-0.8235861063
8.3999996185;-0.90301662683
8.4499998093;-0.95661783218
8.5;-0.93507868052
8.5500001907;-0.91995769739
8.6000003815;-0.82747024298
8.6499996185;-0.71727919579
8.6999998093;-0.61625593901
8.75;-0.45407801867
8.8000001907;-0.3397847116
8.8500003815;-0.19201536477
8.8999996185;-0.11017478257
8.9499998093;-0.011392409913
9.0;0.0
9.0500001907;0.0
9.1000003815;0.0
9.1499996185;0.0
9.1999998093;-0.030756497756
9.25;-0.085874862969
9.3000001907;-0.19507022202
9.3500003815;-0.36085063219
9.3999996185;-0.49119132757
9.4495000839;-0.66955369711
9.4995002747;-0.79314929247
9.5495004654;-0.92148923874
9.5994997025;-1.0199986696
9.6494998932;-1.0806546211
9.6995000839;-1.1097103357
9.7495002747;-1.0922671556
9.7995004654;-1.0563956499
9.8494997025;-0.96341121197
9.8994998932;-0.86112582684
9.9495000839;-0.74101644754
9.9995002747;-0.5994964838
10.049500465;-0.49078309536
10.099499702;-0.34836497903
10.149499893;-0.26326075196
10.199500084;-0.19261047244
10.249500275;-0.14705841243
10.299500465;-0.14483724535
10.349499702;-0.17253692448
10.399499893;-0.24690157175
10.449500084;-0.32654264569
10.499500275;-0.44808450341
10.549500465;-0.56221985817
10.599499702;-0.69377851486
10.649499893;-0.80101758242
10.699500084;-0.90688163042
10.749500275;-0.97780895233
10.799500465;-1.0355606079
10.849499702;-1.067109704
10.899499893;-1.0688143969
10.949500084;-1.0327931643
10.999500275;-0.96812564135
11.049500465;-0.86144244671
11.099499702;-0.73840045929
11.149499893;-0.58946484327
11.199500084;-0.41700333357
11.249500275;-0.24706605077
11.299500465;-0.13308262825
11.349499702;-0.046895842999
11.399499893;-0.01004956197
11.449500084;0.0
11.499500275;0.0
11.549500465;0.0
11.599499702;-0.030838746578
11.649499893;-0.072175271809
11.699500084;-0.11081246287
11.749500275;-0.19646072388
11.799500465;-0.27781048417
11.849499702;-0.36679106951
11.899499893;-0.4768050313
11.949500084;-0.5617878437
11.999500275;-0.64280164242
12.049500465;-0.69475382566
12.099499702;-0.70845192671
12.149499893;-0.70063537359
12.199500084;-0.66789150238
12.249500275;-0.6064440608
12.299500465;-0.53529918194
12.349499702;-0.43481853604
12.399499893;-0.3451218009
12.449500084;-0.24454408884
12.499500275;-0.1587844044
12.549500465;-0.10385841876
12.599499702;-0.046410974115
12.649499893;-0.028881948441
12.699500084;-0.016305642202
12.749500275;-0.018301207572
12.799500465;-0.03733933717
12.849499702;-0.071502141654
12.899499893;-0.12234149873
12.949500084;-0.195091784
12.999500275;-0.30126836896
13.049500465;-0.38735494018
13.099499702;-0.51925301552
13.149499893;-0.58842092752
13.199500084;-0.68635928631
13.249500275;-0.72882282734
13.299500465;-0.76801711321
13.349499702;-0.77723193169
13.399499893;-0.76294827461
13.449500084;-0.72123122215
13.499500275;-0.66132616997
13.549500465;-0.57639414072
13.599499702;-0.48706033826
13.649499893;-0.39173018932
13.699500084;-0.30665335059
13.749500275;-0.22403758764
13.799500465;-0.1733084321
13.849499702;-0.13033552468
13.899499893;-0.11402528733
13.949500084;-0.12582823634
13.999500275;-0.15946774185
14.049500465;-0.22245469689
14.099499702;-0.30606222153
14.149499893;-0.41125643253
14.199500084;-0.51613044739
14.249500275;-0.63740122318
14.299500465;-0.73629373312
14.349499702;-0.82973122597
14.399499893;-0.89589840174
14.449500084;-0.94946491718
14.499500275;-0.96873551607
14.549500465;-0.96552270651
14.599499702;-0.93589955568
14.649499893;-0.89603453875
14.699500084;-0.8380125165
14.749500275;-0.77047801018
14.799500465;-0.6817522049
14.849499702;-0.60156458616
14.899499893;-0.50952839851
14.949500084;-0.42645180225
14.999500275;-0.35232383013
15.049500465;-0.29711255431
15.099499702;-0.24990445375
15.149499893;-0.22633509338
15.199500084;-0.22082562745
15.249500275;-0.20884384215
15.299500465;-0.24186214805
15.349499702;-0.24205812812
15.399499893;-0.27404499054
15.449500084;-0.28702312708
15.499500275;-0.32854300737
15.549500465;-0.34733226895
15.599499702;-0.37640801072
15.649499893;-0.39662882686
15.699500084;-0.41410294175
15.749500275;-0.42932227254
15.799500465;-0.43160551786
15.849499702;-0.39886683226
15.899499893;-0.36118474603
15.949500084;-0.29632288218
15.999500275;-0.22962328792
16.049499512;-0.17428261042
16.099500656;-0.10761178285
16.149499893;-0.063685834408
16.19949913;-0.022600419819
16.249500275;-0.0019130008295
16.299499512;0.0
16.349500656;0.0
16.399499893;0.0
16.44949913;0.0
16.499500275;-0.016685944051
16.549499512;-0.056804060936
16.599500656;-0.097041919827
16.649499893;-0.1668689996
16.69949913;-0.21821640432
16.749500275;-0.28612735868
16.799499512;-0.34924447536
16.849500656;-0.39754727483
16.899499893;-0.44141456485
16.94949913;-0.44984248281
16.999500275;-0.45667773485
17.049499512;-0.43110138178
17.099500656;-0.39535227418
17.149499893;-0.35190817714
17.19949913;-0.29133331776
17.249500275;-0.23225156963
17.299499512;-0.1682100296
17.349500656;-0.10889925063
17.399499893;-0.057473443449
17.44949913;-0.024163568392
17.499500275;-0.0018257162301
17.549499512;0.0
17.599500656;0.0
17.649499893;0.0
17.69949913;-0.016599349678
17.749500275;-0.049775376916
17.799499512;-0.097672589123
17.849500656;-0.16834375262
17.899499893;-0.23538713157
17.94949913;-0.3155169785
17.999500275;-0.40382912755
18.049499512;-0.46940848231
18.099500656;-0.53030312061
18.149499893;-0.55699276924
18.19949913;-0.58504676819
18.249500275;-0.5682451725
18.299499512;-0.55447167158
18.349500656;-0.50954180956
18.399499893;-0.46074771881
18.44949913;-0.4069814384
18.499500275;-0.34199601412
18.549499512;-0.28664201498
18.599500656;-0.22920610011
18.649499893;-0.17985086143
18.69949913;-0.15393258631
18.749500275;-0.13082617521
18.799499512;-0.13153663278
18.849500656;-0.14911828935
18.899499893;-0.17440700531
18.94949913;-0.2123696655
18.999500275;-0.26318728924
19.049499512;-0.31617811322
19.099500656;-0.37527430058
19.149499893;-0.42775371671
19.19949913;-0.46940547228
19.249500275;-0.4947861135
19.299499512;-0.50544631481
19.349500656;-0.48845610023
19.399999619;-0.45505911112
19.450000763;-0.40415242314
19.5;-0.32571342587
19.549999237;-0.25671410561
19.600000381;-0.14865033329
19.649999619;-0.062679387629
19.700000763;-0.0061236205511
19.75;0.0
19.799999237;0.0
19.850000381;0.0
19.899999619;0.0
19.950000763;0.0
20.0;0.0
20.049999237;0.0
20.100000381;0.0
20.149999619;0.0
20.200000763;0.0
20.25;-0.00011158945563
20.299999237;-0.022592352703
20.350000381;-0.028735363856
20.399999619;-0.063922822475
20.450000763;-0.11617565155
20.5;-0.1164502725
20.549999237;-0.13751772046
20.600000381;-0.16202026606
20.649999619;-0.14927324653
20.700000763;-0.14613947272
20.75;-0.13880075514
20.799999237;-0.1142937541
20.850000381;-0.094503171742
20.899999619;-0.062445592135
20.950000763;-0.044470909983
21.0;-0.011460579
21.049999237;-0.00022087732214
21.100000381;0.0
21.149999619;0.0
21.200000763;0.0
21.25;0.0
21.299999237;0.0
21.350000381;0.0
21.399999619;0.0
21.450000763;0.0
21.5;0.0
21.549999237;-0.0066114505753
21.600000381;-0.039605684578
21.649999619;-0.064644642174
21.700000763;-0.09478815645
21.75;-0.12443107367
21.799999237;-0.14314433932
21.850000381;-0.15583711863
21.899999619;-0.16815778613
21.950000763;-0.17298875749
22.0;-0.1620271951
22.049999237;-0.14704935253
22.100000381;-0.12075291574
22.149999619;-0.094713255763
22.200000763;-0.070460915565
22.25;-0.053839460015
22.299999237;-0.032731782645
22.350000381;-0.019195200875
22.399999619;-0.0063259066083
22.450000763;-1.5749034787e-07
22.5;0.0
22.549999237;0.0
22.600000381;0.0
22.649999619;-0.0011090089101
22.700000763;-0.007433288265
22.75;-0.018355483189
22.799999237;-0.041980430484
22.850000381;-0.060665003955
22.899999619;-0.079021818936
22.950000763;-0.086547777057
23.0;-0.10525407642
23.049999237;-0.084318913519
23.100000381;-0.084284089506
23.149999619;-0.062756709754
23.200000763;-0.021535698324
23.25;-0.00039787765127
23.299999237;0.0
23.350000381;0.0
23.399999619;0.0
23.450000763;0.0
23.5;0.0
23.549999237;0.0
23.600000381;0.0
23.649999619;0.0
23.700000763;0.0
23.75;0.0
23.799999237;0.0
23.850000381;0.0
23.899999619;0.0
23.950000763;0.0
24.0;0.0
24.049999237;0.0
24.100000381;0.0
24.149999619;0.0
24.200000763;0.0
24.25;-0.0020365249366
24.299999237;-0.00010231814667
24.350000381;-0.0072502405383
24.399999619;-0.022963281721
24.450000763;-0.017533479258
24.5;-0.011122358963
24.549999237;-0.015847034752
24.600000381;-0.011053084396
24.649999619;-0.00080825691111
24.700000763;0.0
24.75;0.0
24.799999237;0.0
24.850000381;0.0
24.899999619;0.0
24.950000763;0.0
25.0;0.0
25.049999237;0.0
25.100000381;0.0
25.149999619;0.0
25.200000763;0.0
25.25;0.0
25.299999237;0.0
25.350000381;0.0
25.399999619;0.0
25.450000763;0.0
25.5;-0.0091770654544
25.549999237;-0.029499201104
25.600000381;-0.032987747341
25.649999619;-0.061232041568
25.700000763;-0.067221388221
25.75;-0.06057144329
25.799999237;-0.054717604071
25.850000381;-0.060275815427
25.899999619;-0.034838542342
25.950000763;-0.026893647388
26.0;-0.020177543163
26.049999237;-0.012179000303
26.100000381;-0.00083306391025
26.149999619;0.0
26.200000763;0.0
26.25;0.0
26.299999237;0.0
26.350000381;0.0
26.399999619;0.0
26.450000763;0.0
26.5;0.0
26.549999237;0.0
26.600000381;0.0
26.649999619;0.0
26.700000763;0.0
26.75;-0.0093776937574
26.799999237;-0.0066351890564
26.850000381;-0.0036965713371
26.899999619;-0.0034176744521
26.950000763;0.0
27.0;0.0
27.049999237;0.0
27.100000381;0.0
27.149999619;0.0
27.200000763;0.0
27.25;0.0
27.299999237;0.0
27.350000381;0.0
27.399999619;0.0
27.450000763;0.0
27.5;0.0
27.549999237;0.0
27.600000381;0.0
27.649999619;0.0
27.700000763;0.0
27.75;0.0
27.799999237;0.0
27.850000381;0.0
27.899999619;0.0
27.950000763;0.0
28.0;0.0
28.049999237;0.0
28.100000381;-0.0028313794173
28.149999619;-0.0003753179044
28.200000763;-0.0053053582087
28.25;-0.0097736921161
28.299999237;-0.0026526208967
28.350000381;0.0
28.399999619;0.0
28.450000763;0.0
28.5;0.0
28.549999237;0.0
28.600000381;0.0
28.649999619;0.0
28.700000763;0.0
28.75;0.0
28.799999237;0.0
28.850000381;0.0
28.899999619;0.0
28.950000763;0.0
29.0;0.0
29.049999237;0.0
29.100000381;0.0
29.149999619;0.0
29.200000763;0.0
29.25;-0.0012845529709
29.299999237;-0.01510176342
29.350000381;-0.037834856659
29.399999619;-0.054679106921
29.450000763;-0.074716702104
29.5;-0.091992892325
29.549999237;-0.097727037966
29.600000381;-0.092047706246
29.649999619;-0.085825145245
29.700000763;-0.072365537286
29.75;-0.061651721597
29.799999237;-0.053833462298
29.850000381;-0.046014964581
29.899999619;-0.039135415107
29.950000763;-0.033731844276
30.0;-0.025920484215
30.049999237;-0.015656890348
30.100000381;-0.012520923279
30.149999619;-0.010560956784
30.200000763;-0.011774435639
30.25;-0.016453515738
30.299999237;-0.026477750391
30.350000381;-0.034426700324
30.399999619;-0.052855797112
30.450000763;-0.073072932661
30.5;-0.088227055967
30.549999237;-0.10807259381
30.600000381;-0.12920254469
30.649999619;-0.13774506748
30.700000763;-0.14175795019
30.75;-0.14450925589
30.799999237;-0.1296274215
30.850000381;-0.11164326966
30.899999619;-0.096507839859
30.950000763;-0.066581726074
31.0;-0.030369084328
31.049999237;-0.0090589243919
31.100000381;-2.528046025e-05
31.149999619;0.0
31.200000763;0.0
31.25;0.0
31.299999237;0.0
31.350000381;0.0
31.399999619;0.0
31.450000763;0.0
31.5;0.0
31.549999237;0.0
31.600000381;0.0
31.649999619;0.0
31.700000763;0.0
31.75;0.0
31.799999237;0.0
31.850000381;-0.0082837697119
31.899999619;-0.012569709681
31.950000763;-0.038497183472
32.0;-0.067586176097
32.049999237;-0.079224072397
32.099998474;-0.086082182825
32.150001526;-0.097793191671
32.200000763;-0.090030431747
32.25;-0.078223437071
32.299999237;-0.071309894323
32.349998474;-0.055137000978
32.400001526;-0.034801073372
32.450000763;-0.023631442338
32.5;-0.012581358664
32.549999237;-0.0071833063848
32.599998474;-0.0057796146721
32.650001526;-0.01143369358
32.700000763;-0.015103106387
32.75;-0.022442521527
32.799999237;-0.03727113083
32.849998474;-0.03998279199
32.900001526;-0.060169648379
32.950000763;-0.072816751897
33.0;-0.10251392424
33.049999237;-0.12664332986
33.099998474;-0.16050051153
33.150001526;-0.17881967127
33.200000763;-0.20628862083
33.25;-0.20930975676
33.299999237;-0.21939487755
33.349998474;-0.2112557143
33.400001526;-0.20571678877
33.450000763;-0.19999119639
33.5;-0.20091731846
33.549999237;-0.19976055622
33.599998474;-0.20585179329
33.650001526;-0.20446354151
33.700000763;-0.20728863776
33.75;-0.1990980655
33.799999237;-0.19513912499
33.849998474;-0.18991810083
33.900001526;-0.18762326241
33.950000763;-0.19372969866
34.0;-0.19727040827
34.049999237;-0.21507385373
34.099998474;-0.21684667468
34.150001526;-0.22847959399
34.200000763;-0.22505670786
34.25;-0.24027518928
34.299999237;-0.24868823588
34.349998474;-0.27236700058
34.400001526;-0.29318505526
34.450000763;-0.31657269597
34.5;-0.33923870325
34.549999237;-0.35422053933
34.599998474;-0.36411929131
34.650001526;-0.3595328033
34.700000763;-0.35155835748
34.75;-0.33772492409
34.799999237;-0.32491365075
34.849998474;-0.31274104118
34.900001526;-0.30058136582
34.950000763;-0.2873685658
35.0;-0.27186235785
35.049999237;-0.2497729212
35.099998474;-0.23819950223
35.150001526;-0.23020027578
35.200000763;-0.23969124258
35.25;-0.24600943923
35.299999237;-0.26584810019
35.349998474;-0.26268485188
35.400001526;-0.28320109844
35.450000763;-0.27880632877
35.5;-0.30075764656
35.549999237;-0.31591635942
35.599998474;-0.33569955826
35.650001526;-0.34856075048
35.700000763;-0.37037846446
35.75;-0.37977707386
35.799999237;-0.39755123854
35.849998474;-0.40396520495
35.900001526;-0.41339212656
35.950000763;-0.4080055058
36.0;-0.40771949291
36.049999237;-0.40364894271
36.099998474;-0.4109197557
36.150001526;-0.40918701887
36.200000763;-0.42041954398
36.25;-0.42298382521
36.299999237;-0.42571854591
36.349998474;-0.4217865169
36.400001526;-0.41382163763
36.450000763;-0.40506517887
36.5;-0.4019010067
36.549999237;-0.40408584476
36.599998474;-0.40671953559
36.650001526;-0.41401875019
36.700000763;-0.42329987884
36.75;-0.43830761313
36.799999237;-0.46817141771
36.849998474;-0.48778375983
36.900001526;-0.51476514339
36.950000763;-0.52902042866
37.0;-0.54467791319
37.049999237;-0.55542016029
37.099998474;-0.56448882818
37.150001526;-0.56209820509
37.200000763;-0.56052136421
37.25;-0.55317115784
37.299999237;-0.54808974266
37.349998474;-0.54217118025
37.400001526;-0.53239971399
37.450000763;-0.51995122433
37.5;-0.51365274191
37.549999237;-0.5074633956
37.599998474;-0.50690984726
37.650001526;-0.51040166616
37.700000763;-0.5192886591
37.75;-0.52718919516
37.799999237;-0.54263013601
37.849998474;-0.55635255575
37.900001526;-0.56790673733
37.950000763;-0.5767545104
38.0;-0.57710927725
38.049999237;-0.57883125544
38.099998474;-0.59064918756
38.149501801;-0.58708697557
38.199501038;-0.60675877333
38.249500275;-0.60638016462
38.299499512;-0.61577272415
38.349498749;-0.60970544815
38.399501801;-0.6096701622
38.449501038;-0.60212427378
38.499500275;-0.60032850504
38.549499512;-0.59777951241
38.599498749;-0.59706169367
38.649501801;-0.59406530857
38.699501038;-0.58854752779
38.749500275;-0.57067966461
38.799499512;-0.55024158955
38.849498749;-0.52710300684
38.899501801;-0.51586937904
38.949501038;-0.50625377893
38.999500275;-0.50974857807
39.049499512;-0.50648063421
39.099498749;-0.51302683353
39.149501801;-0.52413809299
39.199501038;-0.54147607088
