Angle[degree];Secondary axis[mm];Main axis[mm];Out-of-roundness[-];Collapse[mm]
0.0;21.610623744445334;20.66013884580928;0.04483419333188942;0.3746280458237692
1.0;21.60381583561457;20.693848459609736;0.04292298943419022;0.42197162881642925
2.0;21.592159746336506;20.683580590689363;0.04285750734184636;0.45755648562196427
3.0;21.577308349476844;20.67398960972792;0.04260937451645876;0.4841237822685045
4.0;21.56104594644262;20.632844702547406;0.04378307754222703;0.5005756234176815
5.0;21.542617872137882;20.595754542636058;0.04466336459914262;0.50613316406114
6.0;21.519882214952077;20.5075989288035;0.04774921161078193;0.5083565056569057
7.0;21.499227923366327;20.41597136816119;0.051097007320996965;0.5016553329307456
8.0;21.475878904289658;20.329970946970526;0.054052262137694894;0.4923198009964267
9.0;21.458104075388178;20.248128650745272;0.057074312483155934;0.4783184222737873
10.0;21.446406540056685;20.232553078712943;0.05725723874262935;0.46211925439598645
11.0;21.425112758848385;20.221352930207395;0.056781123992499544;0.4485347646947915
12.0;21.41448820295213;20.248161875320555;0.05501539281281006;0.43003536408360077
13.0;21.39778752734742;20.273206069933785;0.05304629516102044;0.4248574548726154
14.0;21.3912152593698;20.33807903195285;0.04967623714230894;0.41296882156594705
15.0;21.37059998236355;20.384636776030728;0.046507698411925605;0.42662360150537637
16.0;21.353250100557453;20.442589715162253;0.04295567855637737;0.43515982758071914
17.0;21.342406109961487;20.47334649783063;0.040993377930700854;0.4608230768436954
18.0;21.328544280768227;20.49064164760241;0.039523709111595196;0.49017664831213636
19.0;21.3020575481614;20.480363516614503;0.03875915243145743;0.5362125578251522
20.0;21.282940604811117;20.460572628706707;0.03879094226907592;0.5823238477568751
21.0;21.274598011052525;20.425097690423254;0.04007076984100338;0.6289485782622535
22.0;21.258452439092594;20.380608366370033;0.04140773927936604;0.6694814474772528
23.0;21.231517791669674;20.33044883922131;0.04250325247397936;0.7013424631089649
24.0;21.219452866585293;20.274999869248976;0.044549669685675315;0.7269890172213564
25.0;21.21812882399486;20.21268068949249;0.04742679879728159;0.7419723022445197
26.0;21.20630196581247;20.153783269816575;0.049647108301693235;0.7390737499404523
27.0;21.18709127045919;20.11276789217276;0.05067563105124684;0.7221502382025662
28.0;21.181452581957686;20.070702633646093;0.0523938654863959;0.704650691395365
29.0;21.178623632195325;20.071529623621974;0.05222141549874301;0.6750181248806015
30.0;21.165447088718395;20.070325030510478;0.051656700858863994;0.6562219158191098
31.0;21.152896852837472;20.108537589780273;0.04926222938949053;0.6280325566831024
32.0;21.152267496969827;20.124578980574476;0.04847587341487504;0.6191514962782563
33.0;21.15260565207671;20.18464388328035;0.045658573999828166;0.6010792923637212
34.0;21.148212410474372;20.204494541236315;0.044514993831983825;0.6199672716073792
35.0;21.155899244186884;20.232910737406225;0.043537193716068796;0.6326162429940467
36.0;21.15684601396603;20.235189702433036;0.043474354317594124;0.6625264300876665
37.0;21.172375287568947;20.20935570601271;0.045425451960199946;0.6851958318017282
38.0;21.180295875868573;20.166189135840842;0.047835223586213754;0.7186047507138511
39.0;21.18828905810379;20.12241252284395;0.05027719505942656;0.7472763729178311
40.0;21.208596498167246;20.070742147460113;0.053672375033355355;0.7791199746431658
41.0;21.231898367788887;20.044784373473167;0.05599594312809998;0.8030687049331675
42.0;21.239290839970543;20.019176319212622;0.057552571733864195;0.8227507430472372
43.0;21.24594051776897;20.003177220112;0.058620910266838265;0.8390079014649388
44.0;21.273805308650836;19.986550946372482;0.06071954539048839;0.8502044338361188
45.0;21.2898907128332;19.977488714905736;0.061905754619219946;0.8589573257654948
46.0;21.288107954210062;19.96909811025558;0.06221744546955107;0.8620927527083069
47.0;21.291008159928992;19.96505776003775;0.06254483018354909;0.8664146475428112
48.0;21.315209594385472;19.963142586489056;0.06377674565549132;0.8617500785524541
49.0;21.32119381165407;19.966794564415803;0.06388675694520124;0.8580075216732794
50.0;21.309663540032915;19.973675837365608;0.06301828786166541;0.8449538031295063
51.0;21.314776778356595;19.98084774054367;0.06292118102891159;0.8390087549129106
52.0;21.332964457157303;19.992426886964655;0.0632329042543702;0.8217920864087702
53.0;21.334237800584162;20.003021574255254;0.06279321822306175;0.8136206810070448
54.0;21.321930851922474;20.01325149842032;0.06173015818406385;0.8002800914219748
55.0;21.329988309965664;20.02588216676815;0.061514440716863926;0.7928311015048024
56.0;21.34749596594763;20.03464498450339;0.0619269330869924;0.7835026782269807
57.0;21.348758417026843;20.042128630930126;0.061633480476260265;0.7821605717971067
58.0;21.33539327945089;20.044076332113537;0.06091117676119592;0.7844269831308992
59.0;21.352285935930382;20.051564934106334;0.06135476423698339;0.7863620836492231
60.0;21.370532489817585;20.050275423403434;0.062276276717648606;0.7937682623689639
61.0;21.372010650712802;20.051561922556132;0.06228531736588066;0.7988125010775917
62.0;21.360982344288118;20.04281723857555;0.062177599326064446;0.8119049786083252
63.0;21.381348378662274;20.045515651402376;0.06301097770093861;0.8156987053423208
64.0;21.398493506634523;20.041432300887774;0.06401232102579006;0.8249558893255653
65.0;21.400235158715162;20.04525916275457;0.06391396207361291;0.825940127561168
66.0;21.4021142856992;20.045284907649112;0.06400138575707956;0.8325077265445415
67.0;21.4160889553174;20.05390193612818;0.06425410467873668;0.8306903729846837
68.0;21.422371331540376;20.061037231985168;0.06421387262052868;0.8321347260210175
69.0;21.433985307265402;20.06700035771813;0.06448042214845628;0.8317670386460208
70.0;21.439966722105545;20.077947252813797;0.06424620138168625;0.8322503634941185
71.0;21.445490750659886;20.083181507684365;0.06425986995167549;0.8358291754741458
72.0;21.45212974381016;20.092656771896692;0.06412608358082401;0.8407352700482988
73.0;21.45794592877712;20.087244651714368;0.06465572061616762;0.8536933042246417
74.0;21.463559078804224;20.099312061659585;0.06435127439361502;0.8601777022665829
75.0;21.468788784796168;20.092976988147154;0.06489678286080255;0.8784179260990825
76.0;21.47329134727225;20.101054669800412;0.06472814516376602;0.890557913594634
77.0;21.47764384285791;20.094587389659758;0.065238511943309;0.9104060032878749
78.0;21.48288863370979;20.09838852945232;0.06530660869139024;0.9228108373438317
79.0;21.48577324919163;20.098724656876747;0.06542682039221148;0.9357128705618862
80.0;21.488679821513443;20.102833440342124;0.06537011231940186;0.9476214552109141
81.0;21.494797432616338;20.108996305741726;0.06536797768276467;0.9550938202641248
82.0;21.49728665074396;20.109945153959963;0.06544063664075454;0.9656887873416764
83.0;21.505854811991213;20.118926942519515;0.06542112591847633;0.9707278532468706
84.0;21.51120716910639;20.119979692941556;0.06562393755494511;0.9800923085067339
85.0;21.500794588222938;20.1283924406325;0.06473595035803956;0.9852249219112394
86.0;21.509114397105506;20.1298658530314;0.0650588935884012;0.9905131501668905
87.0;21.52669629065521;20.13685757731176;0.0655584298746911;0.996331968609887
88.0;21.525102548428336;20.147705453996632;0.06497156105809923;0.9941023736418941
88.18;21.52288586601661;20.148198993358914;0.06484372040838181;0.9944411106067363
89.0;21.50969794994286;20.158432331370193;0.06373894427229568;0.9906940386502612
90.0;21.525158160191936;20.17343188516974;0.06376067335010352;0.9788402003935843
90.02;21.525598107883447;20.173734473058527;0.06376715258608111;0.9785315488678918
