Time [s];Force [kN]
0.0;0.0
0.049499999732;0.0
0.099500000477;0.0
0.1494999975;0.0
0.19949999452;0.0
0.24950000644;0.0
0.29949998856;0.0
0.34950000048;0.0
0.3995000124;0.0
0.44949999452;0.0
0.49950000644;-0.050594978034
0.55000001192;-0.37381857634
0.60000002384;-0.86914020777
0.64999997616;-1.2934910059
0.69999998808;-1.5851376057
0.75;-1.8522298336
0.80000001192;-2.0456774235
0.85000002384;-2.2047355175
0.89999997616;-2.2157337666
0.94999998808;-1.9309742451
1.0;-1.5735054016
1.0499999523;-1.2225836515
1.1000000238;-0.87958484888
1.1499999762;-0.52546489239
1.2000000477;-0.35074418783
1.25;-0.10177928954
1.2999999523;-0.00017315711011
1.3500000238;0.0
1.3999999762;0.0
1.4500000477;0.0
1.5;0.0
1.5499999523;0.0
1.6000000238;0.0
1.6499999762;0.0
1.7000000477;0.0
1.75;0.0
1.7999999523;-0.0022392517421
1.8500000238;-0.19727507234
1.8999999762;-0.33319541812
1.9500000477;-0.94742465019
2.0;-1.3472369909
2.0499999523;-1.8306776285
2.0999999046;-1.8354306221
2.1500000954;-1.7356942892
2.2000000477;-1.2229536772
2.25;-1.0423979759
2.2999999523;-0.81613451242
2.3499999046;-0.67724519968
2.4000000954;-0.60810875893
2.4500000477;-0.4317355454
2.4995000362;-0.22362110019
2.5494999886;-0.14054450393
2.5994999409;0.0
2.6494998932;-0.0055585880764
2.6995000839;0.0
2.7495000362;0.0
2.7994999886;0.0
2.8494999409;0.0
2.8994998932;0.0
2.9495000839;0.0
2.9995000362;0.0
3.0494999886;0.0
3.0994999409;0.0
3.1494998932;-0.15948426723
3.1995000839;-0.26115387678
3.2495000362;-0.58367776871
3.2994999886;-0.55964416265
3.3494999409;-0.93513053656
3.3994998932;-1.0014888048
3.4495000839;-1.1326156855
3.4995000362;-1.2005765438
3.5494999886;-1.0533720255
3.5994999409;-0.98025643826
3.6494998932;-0.88516783714
3.6995000839;-0.72101283073
3.7495000362;-0.47761747241
3.7994999886;-0.19831319153
3.8494999409;-0.036203458905
3.8994998932;-0.00094542762963
3.9495000839;0.0
3.9995000362;0.0
4.0494999886;0.0
4.0995001793;0.0
4.1494998932;0.0
4.1995000839;0.0
4.2494997978;0.0
4.2994999886;0.0
4.3495001793;0.0
4.3994998932;-0.05838906765
4.4495000839;-0.16731739044
4.4994997978;-0.2300222218
4.5494999886;-0.4403091073
4.5995001793;-0.5781069994
4.6494998932;-0.71667671204
4.6995000839;-0.83779913187
4.7494997978;-0.87965136766
4.7994999886;-0.9037065506
4.8495001793;-0.89227706194
4.8994998932;-0.77216941118
4.9499998093;-0.72088176012
5.0;-0.59669834375
5.0500001907;-0.46327191591
5.0999999046;-0.28838983178
5.1500000954;-0.17307831347
5.1999998093;-0.033489789814
5.25;-0.0080970879644
5.3000001907;0.0
5.3499999046;0.0
5.4000000954;0.0
5.4499998093;0.0
5.5;0.0
5.5500001907;0.0
5.5999999046;0.0
5.6500000954;0.0
5.6999998093;-0.026562187821
5.75;-0.17211446166
5.8000001907;-0.29185605049
5.8499999046;-0.5261888504
5.9000000954;-0.67286348343
5.9499998093;-0.83000820875
6.0;-0.91263437271
6.0500001907;-1.0071915388
6.0999999046;-1.0411615372
6.1500000954;-0.97955721617
6.1999998093;-0.95926624537
6.25;-0.78942149878
6.3000001907;-0.70366585255
6.3499999046;-0.57253104448
6.4000000954;-0.41231456399
6.4499998093;-0.27201667428
6.5;-0.16651082039
6.5500001907;-0.046945739537
6.5999999046;-0.017748121172
6.6500000954;0.0
6.6999998093;0.0
6.75;0.0
6.8000001907;0.0
6.8499999046;0.0
6.9000000954;0.0
6.9499998093;0.0
7.0;-0.084856987
7.0500001907;-0.14907337725
7.0999999046;-0.28016921878
7.1500000954;-0.46309322119
7.1999998093;-0.57893496752
7.25;-0.66803485155
7.3000001907;-0.77506482601
7.3499999046;-0.77173161507
7.4000000954;-0.76938694715
7.4499998093;-0.74166727066
7.5;-0.63507419825
7.5500001907;-0.55727386475
7.5999999046;-0.41845408082
7.6500000954;-0.31654384732
7.6999998093;-0.17495860159
7.75;-0.087221227586
7.8000001907;-0.012043365277
7.8499999046;0.0
7.9000000954;0.0
7.9499998093;0.0
8.0;0.0
8.0500001907;0.0
8.1000003815;0.0
8.1499996185;0.0
8.1999998093;-0.04039478302
8.25;-0.1167730242
8.3000001907;-0.22777505219
8.3500003815;-0.38332515955
8.3999996185;-0.52443236113
8.4499998093;-0.63260889053
8.5;-0.75184941292
8.5500001907;-0.81699126959
8.6000003815;-0.86579585075
8.6499996185;-0.87772887945
8.6999998093;-0.82363218069
8.75;-0.75448352098
8.8000001907;-0.65378969908
8.8500003815;-0.54231661558
8.8999996185;-0.41426968575
8.9499998093;-0.28188285232
9.0;-0.17004428804
9.0500001907;-0.060654312372
9.1000003815;-0.020174074918
9.1499996185;-0.00012593044084
9.1999998093;0.0
9.25;0.0
9.3000001907;-0.0024053747766
9.3500003815;-0.027850341052
9.3999996185;-0.095183238387
9.4495000839;-0.20935049653
9.4995002747;-0.33843269944
9.5495004654;-0.48949494958
9.5994997025;-0.6242646575
9.6494998932;-0.75135368109
9.6995000839;-0.86799973249
9.7495002747;-0.95791089535
9.7995004654;-1.0034772158
9.8494997025;-1.0229130983
9.8994998932;-1.0279673338
9.9495000839;-0.98149812222
9.9995002747;-0.90737837553
10.049500465;-0.82134252787
10.099499702;-0.69812679291
10.149499893;-0.6006488204
10.199500084;-0.47953394055
10.249500275;-0.38601204753
10.299500465;-0.28801122308
10.349499702;-0.22134512663
10.399499893;-0.18082278967
10.449500084;-0.17570775747
10.499500275;-0.18662782013
10.549500465;-0.22988797724
10.599499702;-0.30715972185
10.649499893;-0.37533125281
10.699500084;-0.48364335299
10.749500275;-0.577501297
10.799500465;-0.67180019617
10.849499702;-0.7662498951
10.899499893;-0.81865411997
10.949500084;-0.87831419706
10.999500275;-0.87969911098
11.049500465;-0.89343333244
11.099499702;-0.83486461639
11.149499893;-0.77004915476
11.199500084;-0.64483749866
11.249500275;-0.52726620436
11.299500465;-0.37351697683
11.349499702;-0.23910786211
11.399499893;-0.16012860835
11.449500084;-0.069147981703
11.499500275;-0.035053428262
11.549500465;-0.0083391321823
11.599499702;0.0
11.649499893;0.0
11.699500084;0.0
11.749500275;-0.00038802085328
11.799500465;-0.010442720726
11.849499702;-0.033566784114
11.899499893;-0.089875042439
11.949500084;-0.15003266931
11.999500275;-0.20889738202
12.049500465;-0.28757250309
12.099499702;-0.35950067639
12.149499893;-0.41407811642
12.199500084;-0.48566487432
12.249500275;-0.50899302959
12.299500465;-0.52477514744
12.349499702;-0.51756942272
12.399499893;-0.48133963346
12.449500084;-0.44848912954
12.499500275;-0.37464761734
12.549500465;-0.31695097685
12.599499702;-0.23794956505
12.649499893;-0.1789894551
12.699500084;-0.11592517793
12.749500275;-0.069283299148
12.799500465;-0.036918733269
12.849499702;-0.0056140432134
12.899499893;-0.00012895301916
12.949500084;-0.0013352109818
12.999500275;-0.010345950723
13.049500465;-0.042885612696
13.099499702;-0.094019010663
13.149499893;-0.14054472744
13.199500084;-0.22947871685
13.249500275;-0.29825884104
13.299500465;-0.38768312335
13.349499702;-0.46251362562
13.399499893;-0.53048032522
13.449500084;-0.58153533936
13.499500275;-0.62257939577
13.549500465;-0.64028441906
13.599499702;-0.64110195637
13.649499893;-0.61256664991
13.699500084;-0.57312262058
13.749500275;-0.51203149557
13.799500465;-0.45104575157
13.849499702;-0.36833816767
13.899499893;-0.31000396609
13.949500084;-0.23413281143
13.999500275;-0.19618102908
14.049500465;-0.15754435956
14.099499702;-0.16023395956
14.149499893;-0.15958067775
14.199500084;-0.21167692542
14.249500275;-0.25253519416
14.299500465;-0.33040654659
14.349499702;-0.39795094728
14.399499893;-0.49036920071
14.449500084;-0.56814879179
14.499500275;-0.65068715811
14.549500465;-0.70879811049
14.599499702;-0.78244638443
14.649499893;-0.81787014008
14.699500084;-0.84962368011
14.749500275;-0.84830015898
14.799500465;-0.83233302832
14.849499702;-0.79315716028
14.899499893;-0.73735803366
14.949500084;-0.67205166817
14.999500275;-0.57647937536
15.049500465;-0.50537985563
15.099499702;-0.39701735973
15.149499893;-0.32176572084
15.199500084;-0.23359240592
15.249500275;-0.15916241705
15.299500465;-0.10976414382
15.349499702;-0.056590367109
15.399499893;-0.026296313852
15.449500084;-0.0056210849434
15.499500275;0.0
15.549500465;0.0
15.599499702;-0.00066166900797
15.649499893;-0.041828561574
15.699500084;-0.077263914049
15.749500275;-0.1288421452
15.799500465;-0.19290575385
15.849499702;-0.22675523162
15.899499893;-0.2503529489
15.949500084;-0.28512072563
15.999500275;-0.28364986181
16.049499512;-0.27600863576
16.099500656;-0.2578753531
16.149499893;-0.22291119397
16.19949913;-0.17509192228
16.249500275;-0.1389914602
16.299499512;-0.084485389292
16.349500656;-0.047885272652
16.399499893;-0.011936376803
16.44949913;0.0
16.499500275;0.0
16.549499512;0.0
16.599500656;0.0
16.649499893;0.0
16.69949913;0.0
16.749500275;-0.00012827543833
16.799499512;-0.028400940821
16.849500656;-0.050472531468
16.899499893;-0.093588545918
16.94949913;-0.14605976641
16.999500275;-0.18914468586
17.049499512;-0.23010350764
17.099500656;-0.27360385656
17.149499893;-0.29931661487
17.19949913;-0.31444171071
17.249500275;-0.30811193585
17.299499512;-0.29943823814
17.349500656;-0.27482202649
17.399499893;-0.25514808297
17.44949913;-0.21384355426
17.499500275;-0.17733164132
17.549499512;-0.12834474444
17.599500656;-0.094032786787
17.649499893;-0.062330130488
17.69949913;-0.035288974643
17.749500275;-0.010324907489
17.799499512;-0.0086809825152
17.849500656;-0.002361636376
17.899499893;-0.0049967393279
17.94949913;-0.021934142336
17.999500275;-0.043472528458
18.049499512;-0.082428969443
18.099500656;-0.1374771446
18.149499893;-0.18807734549
18.19949913;-0.24464678764
18.249500275;-0.29948017001
18.299499512;-0.35094252229
18.349500656;-0.38498005271
18.399499893;-0.42400822043
18.44949913;-0.43235269189
18.499500275;-0.44872397184
18.549499512;-0.43818101287
18.599500656;-0.42198753357
18.649499893;-0.39232873917
18.69949913;-0.35196456313
18.749500275;-0.30328679085
18.799499512;-0.25383496284
18.849500656;-0.18953222036
18.899499893;-0.14978303015
18.94949913;-0.089238516986
18.999500275;-0.060664862394
19.049499512;-0.032531417906
19.099500656;-0.017896836624
19.149499893;-0.022934598848
19.19949913;-0.022294698283
19.249500275;-0.027164917439
19.299499512;-0.046754252166
19.349500656;-0.044646367431
19.399999619;-0.062013041228
19.450000763;-0.065334543586
19.5;-0.065623164177
19.549999237;-0.061942629516
19.600000381;-0.048319138587
19.649999619;-0.023573847488
19.700000763;-0.01402206067
19.75;-0.018914354965
19.799999237;-0.010992920958
19.850000381;-0.01267984882
19.899999619;-0.0079662483186
19.950000763;3.7445397894e-09
20.0;0.0
20.049999237;0.0
20.100000381;0.0
20.149999619;0.0
20.200000763;0.0
20.25;0.0
20.299999237;0.0
20.350000381;0.0
20.399999619;0.0
20.450000763;0.0
20.5;0.0
20.549999237;0.0
20.600000381;0.0
20.649999619;0.0
20.700000763;0.0
20.75;0.0
20.799999237;0.0
20.850000381;-0.0080345924944
20.899999619;-0.017000582069
20.950000763;-0.033303331584
21.0;-0.056029193103
21.049999237;-0.064116500318
21.100000381;-0.065983206034
21.149999619;-0.073096320033
21.200000763;-0.05953919515
21.25;-0.038410022855
21.299999237;-0.018483838066
21.350000381;-0.0030379411764
21.399999619;0.0
21.450000763;0.0
21.5;0.0
21.549999237;0.0
21.600000381;0.0
21.649999619;0.0
21.700000763;0.0
21.75;0.0
21.799999237;0.0
21.850000381;0.0
21.899999619;0.0
21.950000763;0.0
22.0;0.0
22.049999237;0.0
22.100000381;-0.011949822307
22.149999619;-0.035525985062
22.200000763;-0.05100928992
22.25;-0.093469671905
22.299999237;-0.097971193492
22.350000381;-0.10893321782
22.399999619;-0.10738643259
22.450000763;-0.10786286741
22.5;-0.088764876127
22.549999237;-0.071994572878
22.600000381;-0.047079455107
22.649999619;-0.021851845086
22.700000763;-0.00050960347289
22.75;0.0
22.799999237;0.0
22.850000381;0.0
22.899999619;0.0
22.950000763;0.0
23.0;0.0
23.049999237;0.0
23.100000381;0.0
23.149999619;0.0
23.200000763;0.0
23.25;0.0
23.299999237;0.0
23.350000381;0.0
23.399999619;0.0
23.450000763;0.0
23.5;0.0
23.549999237;0.0
23.600000381;0.0
23.649999619;0.0
23.700000763;0.0
23.75;0.0
23.799999237;0.0
23.850000381;0.0
23.899999619;0.0
23.950000763;0.0
24.0;0.0
24.049999237;0.0
24.100000381;0.0
24.149999619;0.0
24.200000763;0.0
24.25;0.0
24.299999237;0.0
24.350000381;0.0
24.399999619;0.0
24.450000763;0.0
24.5;0.0
24.549999237;0.0
24.600000381;0.0
24.649999619;0.0
24.700000763;0.0
24.75;0.0
24.799999237;0.0
24.850000381;0.0
24.899999619;0.0
24.950000763;0.0
25.0;-0.0010539074428
25.049999237;-0.00033820178942
25.100000381;0.0
25.149999619;0.0
25.200000763;0.0
25.25;0.0
25.299999237;0.0
25.350000381;0.0
25.399999619;0.0
25.450000763;0.0
25.5;0.0
25.549999237;0.0
25.600000381;0.0
25.649999619;0.0
25.700000763;0.0
25.75;0.0
25.799999237;0.0
25.850000381;0.0
25.899999619;0.0
25.950000763;0.0
26.0;0.0
26.049999237;0.0
26.100000381;-0.00083460728638
26.149999619;-0.016273694113
26.200000763;-0.022259607911
26.25;-0.038809496909
26.299999237;-0.046729110181
26.350000381;-0.045091930777
26.399999619;-0.029973555356
26.450000763;-0.016724979505
26.5;-0.0057037556544
26.549999237;0.0
26.600000381;0.0
26.649999619;0.0
26.700000763;0.0
26.75;0.0
26.799999237;0.0
26.850000381;0.0
26.899999619;0.0
26.950000763;0.0
27.0;0.0
27.049999237;0.0
27.100000381;0.0
27.149999619;0.0
27.200000763;0.0
27.25;0.0
27.299999237;0.0
27.350000381;0.0
27.399999619;0.0
27.450000763;0.0
27.5;0.0
27.549999237;0.0
27.600000381;0.0
27.649999619;0.0
27.700000763;0.0
27.75;0.0
27.799999237;0.0
27.850000381;0.0
27.899999619;0.0
27.950000763;0.0
28.0;0.0
28.049999237;0.0
28.100000381;0.0
28.149999619;0.0
28.200000763;0.0
28.25;0.0
28.299999237;0.0
28.350000381;0.0
28.399999619;0.0
28.450000763;0.0
28.5;0.0
28.549999237;0.0
28.600000381;0.0
28.649999619;0.0
28.700000763;0.0
28.75;0.0
28.799999237;0.0
28.850000381;0.0
28.899999619;0.0
28.950000763;0.0
29.0;0.0
29.049999237;0.0
29.100000381;0.0
29.149999619;0.0
29.200000763;0.0
29.25;0.0
29.299999237;0.0
29.350000381;0.0
29.399999619;0.0
29.450000763;0.0
29.5;0.0
29.549999237;0.0
29.600000381;0.0
29.649999619;0.0
29.700000763;0.0
29.75;0.0
29.799999237;0.0
29.850000381;0.0
29.899999619;0.0
29.950000763;0.0
30.0;-0.0016029521357
30.049999237;-0.014861333184
30.100000381;-0.031521711498
30.149999619;-0.051029834896
30.200000763;-0.065028510988
30.25;-0.076397970319
30.299999237;-0.080717563629
30.350000381;-0.067722260952
30.399999619;-0.066295966506
30.450000763;-0.044293038547
30.5;-0.033605564386
30.549999237;-0.015078521334
30.600000381;-0.0012648514239
30.649999619;0.0
30.700000763;0.0
30.75;0.0
30.799999237;0.0
30.850000381;0.0
30.899999619;0.0
30.950000763;0.0
31.0;0.0
31.049999237;0.0
31.100000381;0.0
31.149999619;0.0
31.200000763;0.0
31.25;0.0
31.299999237;0.0
31.350000381;0.0
31.399999619;0.0
31.450000763;0.0
31.5;0.0
31.549999237;0.0
31.600000381;0.0
31.649999619;0.0
31.700000763;0.0
31.75;0.0
31.799999237;0.0
31.850000381;0.0
31.899999619;0.0
31.950000763;0.0
32.0;0.0
32.049999237;0.0
32.099998474;0.0
32.150001526;0.0
32.200000763;0.0
32.25;0.0
32.299999237;0.0
32.349998474;0.0
32.400001526;0.0
32.450000763;0.0
32.5;0.0
32.549999237;0.0
32.599998474;0.0
32.650001526;-0.0068728299811
32.700000763;-0.033104736358
32.75;-0.040290459991
32.799999237;-0.062289554626
32.849998474;-0.074032336473
32.900001526;-0.076898127794
32.950000763;-0.082414962351
33.0;-0.092716425657
33.049999237;-0.090028494596
33.099998474;-0.087694615126
33.150001526;-0.079456359148
33.200000763;-0.069898545742
33.25;-0.052965853363
33.299999237;-0.045576825738
33.349998474;-0.036157075316
33.400001526;-0.032156165689
33.450000763;-0.03635783121
33.5;-0.043892994523
33.549999237;-0.052310563624
33.599998474;-0.065228022635
33.650001526;-0.080697245896
33.700000763;-0.095068968832
33.75;-0.11553821713
33.799999237;-0.1330717057
33.849998474;-0.15841591358
33.900001526;-0.17983980477
33.950000763;-0.20795784891
34.0;-0.225424245
34.049999237;-0.23516654968
34.099998474;-0.23395955563
34.150001526;-0.22520522773
34.200000763;-0.21760901809
34.25;-0.20948761702
34.299999237;-0.20794427395
34.349998474;-0.20306551456
34.400001526;-0.20513595641
34.450000763;-0.19832251966
34.5;-0.19559665024
34.549999237;-0.18047372997
34.599998474;-0.16883049905
34.650001526;-0.15243752301
34.700000763;-0.15156790614
34.75;-0.15541498363
34.799999237;-0.16983649135
34.849998474;-0.17068681121
34.900001526;-0.18635869026
34.950000763;-0.18559876084
35.0;-0.20320759714
35.049999237;-0.21483793855
35.099998474;-0.23264233768
35.150001526;-0.25270926952
35.200000763;-0.26719143987
35.25;-0.27916544676
35.299999237;-0.28860798478
35.349998474;-0.27828833461
35.400001526;-0.27622303367
35.450000763;-0.27538612485
35.5;-0.2635692656
35.549999237;-0.2670866251
35.599998474;-0.26853248477
35.650001526;-0.26795262098
35.700000763;-0.27710536122
35.75;-0.27802917361
35.799999237;-0.27935135365
35.849998474;-0.28014066815
35.900001526;-0.27933359146
35.950000763;-0.2802298367
36.0;-0.28816813231
36.049999237;-0.30192929506
36.099998474;-0.32182809711
36.150001526;-0.34068405628
36.200000763;-0.36081391573
36.25;-0.37633451819
36.299999237;-0.38657817245
36.349998474;-0.39123177528
36.400001526;-0.39623695612
36.450000763;-0.39922073483
36.5;-0.40606036782
36.549999237;-0.41406518221
36.599998474;-0.42633220553
36.650001526;-0.43021649122
36.700000763;-0.4398625493
36.75;-0.43853208423
36.799999237;-0.44778078794
36.849998474;-0.44910499454
36.900001526;-0.45749565959
36.950000763;-0.460567981
37.0;-0.46745225787
37.049999237;-0.47105970979
37.099998474;-0.47220081091
37.150001526;-0.46710318327
37.200000763;-0.46441024542
37.25;-0.46743199229
37.299999237;-0.46873453259
37.349998474;-0.47059059143
37.400001526;-0.46819713712
37.450000763;-0.47217649221
37.5;-0.48009988666
37.549999237;-0.49769210815
37.599998474;-0.51079159975
37.650001526;-0.53036773205
37.700000763;-0.54532468319
37.75;-0.56378853321
37.799999237;-0.57011812925
37.849998474;-0.58060860634
37.900001526;-0.57223755121
37.950000763;-0.56634455919
38.0;-0.56159609556
38.049999237;-0.54778176546
38.099998474;-0.53594410419
38.149501801;-0.51759797335
38.199501038;-0.50646781921
38.249500275;-0.5046569109
38.299499512;-0.49979764223
38.349498749;-0.50562089682
38.399501801;-0.50942343473
38.449501038;-0.51904904842
38.499500275;-0.51862514019
38.549499512;-0.52995991707
38.599498749;-0.52679306269
38.649501801;-0.52439707518
38.699501038;-0.52166348696
38.749500275;-0.52090275288
38.799499512;-0.53199213743
38.849498749;-0.53671723604
38.899501801;-0.5330684185
38.949501038;-0.54444205761
38.999500275;-0.53241246939
39.049499512;-0.54178202152
39.099498749;-0.54432713985
39.149501801;-0.55767995119
39.199501038;-0.5726801753
39.249500275;-0.58454298973
39.299499512;-0.59896922112
39.349498749;-0.59922122955
39.399501801;-0.60121560097
39.449501038;-0.60427957773
39.499500275;-0.60562324524
39.549499512;-0.61801475286
39.599498749;-0.62086808681
39.649501801;-0.62792134285
39.699501038;-0.63249605894
39.749500275;-0.64211696386
39.799499512;-0.65100008249
39.849498749;-0.66496503353
39.899501801;-0.67158484459
39.949501038;-0.67472201586
39.999500275;-0.66521894932
40.049499512;-0.65230417252
40.099498749;-0.63007289171
40.149501801;-0.61073333025
40.199501038;-0.57582163811
40.249500275;-0.54303234816
40.299499512;-0.49344715476
40.349498749;-0.43841540813
40.399501801;-0.36755883694
40.449501038;-0.29572170973
40.499500275;-0.21296288073
40.549499512;-0.1357255429
40.599498749;-0.053616918623
40.649501801;-0.00079679203918
40.699501038;0.0
40.749500275;0.0
40.799499512;0.0
40.849498749;0.0
