Angle[degree];Secondary axis[mm];Main axis[mm];Out-of-roundness[-];Collapse[mm]
0.0;21.3221196911649;20.988291242310275;0.015821253500219196;0.20637019867218243
1.0;21.31547718075258;20.953045588066793;0.017176852733923578;0.2518818186676768
2.0;21.309637536057608;20.919265862546773;0.018501027180608278;0.2891081657028991
3.0;21.305067643011604;20.892844383279588;0.019536647380664282;0.3171782862615231
4.0;21.302178417925983;20.861674505412882;0.020876962678346024;0.34405027676572075
5.0;21.30056008575226;20.839136871231425;0.021868398792456625;0.3645593127599369
6.0;21.2976752108441;20.814339789679497;0.022906891998322458;0.3829890946918937
7.0;21.296491183911755;20.795256178375954;0.023755213532502397;0.39938826130498484
8.0;21.296009358548513;20.778732813809047;0.02451547605400316;0.40804185548834226
9.0;21.29522052931999;20.768536126355198;0.024961346112075518;0.4162764350539234
10.0;21.294108366784393;20.76050607482449;0.025289208149758373;0.4182092183339563
11.0;21.293512950535728;20.76184204646154;0.025197673178871553;0.41672756940865696
12.0;21.293017747291323;20.757701962773698;0.025370416327849518;0.41468024508613865
13.0;21.292372428531124;20.766289478613515;0.024932841228322667;0.4048775120910264
14.0;21.29207345775057;20.76353705342795;0.025049118688275772;0.40170705815747
15.0;21.292050011544017;20.77223081693848;0.024635980786992192;0.39227583153512313
16.0;21.292534051148515;20.772085111843655;0.02466582650733932;0.3858775909140135
17.0;21.2931176655136;20.776189543741314;0.02449896311716989;0.3805084513229531
18.0;21.294689754061224;20.779337836092306;0.02442426151511458;0.3723769224203153
19.0;21.296786784628864;20.774126197570446;0.024770643936417914;0.37469117279163555
20.0;21.29867629839709;20.77071416703118;0.025021901960469696;0.37136628352151746
21.0;21.300661936523092;20.758930833239514;0.025674459871259603;0.3777616389204681
22.0;21.30331425181801;20.751914963143467;0.026132667709693934;0.37782269313045447
23.0;21.306893722896206;20.74137905372602;0.026801643088634333;0.3806845992415475
24.0;21.308758202348177;20.730728400300897;0.02739477734821228;0.3820629567629297
25.0;21.310011434236678;20.722423589418987;0.027847765157236515;0.3795401903278517
26.0;21.31321633386324;20.715657803049982;0.02832030951721608;0.37684151305646907
27.0;21.313455618427376;20.714194857901322;0.028400983911187384;0.36561073057828253
28.0;21.315944484243555;20.70825667451755;0.02880037012919458;0.36128520765691974
29.0;21.317994987077522;20.70803073471728;0.028908258405698703;0.34773782270772813
30.0;21.321944764400023;20.708701763042015;0.029063649353460078;0.3382904700317795
31.0;21.323794585230765;20.705913744391548;0.029283452172474713;0.32627374332177794
32.0;21.32608513198276;20.709417974849906;0.029225931617670883;0.31380143959582085
33.0;21.330111257135222;20.705491036570606;0.02960285405519505;0.30491832425583
34.0;21.333312978799626;20.707075734821792;0.029679490235916265;0.29311958942425775
35.0;21.335852030587716;20.69619022222371;0.03031572551488185;0.2905026068778156
36.0;21.338268803022654;20.695733046213455;0.0304519316023317;0.2788001073953197
37.0;21.341651249979748;20.68688662599001;0.03103149876728617;0.2761068474474797
38.0;21.34259085608613;20.682488723702754;0.031284461250396946;0.26859885937776795
39.0;21.34348284354394;20.67962015848038;0.031462686495903294;0.2630418321071133
40.0;21.344309998794166;20.678078574781672;0.031574949005331476;0.255828531748719
41.0;21.34569866992885;20.68450619893035;0.03133613606627964;0.24633396403800845
42.0;21.345362737865266;20.680944317850347;0.03148902464525679;0.24212143931755037
43.0;21.345091368392616;20.69174689749409;0.03096419293357935;0.22910820176616653
44.0;21.344869546195252;20.68967205352618;0.03105201387057209;0.22493837167659336
45.0;21.345189268541755;20.69790472763886;0.030676992459852837;0.214794842844654
46.0;21.3443152498874;20.69790865975405;0.030635383418642304;0.20836432482956013
47.0;21.34403407638256;20.70361307586021;0.030351706185893283;0.19902967726945064
48.0;21.34393617259693;20.707228061651563;0.03017573985523067;0.18992947750226818
49.0;21.34288830029768;20.707248225543886;0.030125122026246193;0.18523764981678426
50.0;21.341787791802126;20.71344654297345;0.02977920610562444;0.17302515770055038
51.0;21.340674622989262;20.711519340649065;0.029817785892900305;0.16909944434491564
52.0;21.33961080864518;20.716024506893955;0.029553853163565135;0.15978962446205003
53.0;21.337664508656673;20.714354059688805;0.02954077957193684;0.15466845011228258
54.0;21.33587089723224;20.71790949639421;0.02928727018189718;0.14613008347077283
55.0;21.333733479835303;20.719138918929904;0.02912770430831274;0.13789101210128507
56.0;21.331458763800565;20.72023142033958;0.02896812054317466;0.1341577708860484
57.0;21.32905432617506;20.724675695801366;0.02864353698453531;0.12262090345209486
58.0;21.326334900316006;20.726071596966957;0.028448497789054453;0.11888147579763597
59.0;21.32369827948481;20.727920403271526;0.02823591830394707;0.11020861355634537
60.0;21.321399832055643;20.734276045824792;0.027825771859282044;0.1045051117496385
61.0;21.31918803069217;20.736564170448084;0.027612505224838265;0.09597979274037272
62.0;21.317150659058242;20.74802318237124;0.026972866193696723;0.08658637813238812
63.0;21.315667033219622;20.74846017090203;0.02688184181599954;0.08362021237021366
64.0;21.313624687761568;20.76335548620276;0.026079109078616533;0.0713999097430289
65.0;21.31214859219702;20.7616332695748;0.02609077358399136;0.07054875711514086
66.0;21.311703015120642;20.768525692614798;0.025743001066627687;0.06581843702165457
67.0;21.309820372073688;20.77077368470666;0.025547236368105512;0.062497598711601654
68.0;21.307523675921896;20.776416480553877;0.0251709571264464;0.05951499990390374
69.0;21.306405395593302;20.780804410376355;0.024909999299381373;0.053637265503859055
70.0;21.305554042142017;20.781352705661437;0.024843665236046444;0.05750960608653344
71.0;21.30356375321696;20.78810137504921;0.024429496595627997;0.05273203039764951
72.0;21.299750780289237;20.79271262751048;0.024030244207524084;0.0539324841456974
73.0;21.30119336238544;20.792347307575884;0.024115926768225406;0.05579213202806699
74.0;21.29648612311302;20.801335810671894;0.023466839452186066;0.05403521377535725
75.0;21.295065871188392;20.80124859197716;0.02340366252185933;0.058530254463732945
76.0;21.293740241523384;20.80853858521348;0.022995339161606832;0.060123350578166423
77.0;21.288798160286007;20.806159357235295;0.022873876921834683;0.06599397099829218
78.0;21.28574584182654;20.814330773462384;0.02234194636796946;0.06886690675931817
79.0;21.290400574934257;20.819785411623613;0.02230403617585989;0.07016325763901676
80.0;21.282039904454155;20.82473976666939;0.02167299231207425;0.07794812988409205
81.0;21.27113875063301;20.830726069750717;0.020872638904374075;0.07782420617405705
82.0;21.28046827054686;20.84199516800794;0.020780715760138287;0.08053082112154186
83.0;21.281878680514396;20.846336690831063;0.020641800458925743;0.08405341710916758
84.0;21.266635821137328;20.86474557951725;0.01904693088246809;0.0809851976972169
85.0;21.263529657681204;20.867982213374024;0.018746324374747866;0.08641699759165533
86.0;21.274893628868064;20.878732186876217;0.01877542379108279;0.08900548886035864
87.0;21.26937021762648;20.89056300459143;0.017952948485073426;0.08828852091384931
88.0;21.248800573421057;20.89920238691575;0.01656863443153116;0.09071425410260758
88.42;21.250478875689456;20.904676522345476;0.01638873712530714;0.08910587678890636
89.0;21.260022363485824;20.908341522457977;0.016667338437338693;0.08879410092857398
90.0;21.262916709097617;20.916562067230455;0.016414911936832317;0.08261872502820466
90.09;21.262347841777213;20.917900558929283;0.01632451577478344;0.08141481274208218
