Time [s];Force [kN]
0.0;0.0
0.049499999732;0.0
0.099500000477;0.0
0.1494999975;0.0
0.19949999452;0.0
0.24950000644;0.0
0.29949998856;0.0
0.34950000048;0.0
0.3995000124;0.0
0.44949999452;0.0
0.49950000644;-0.050534561276
0.55000001192;-0.37337955832
0.60000002384;-0.86766946316
0.64999997616;-1.2942847013
0.69999998808;-1.6098744869
0.75;-1.8370070457
0.80000001192;-2.0644600391
0.85000002384;-2.1900053024
0.89999997616;-2.2077524662
0.94999998808;-1.9301825762
1.0;-1.576800704
1.0499999523;-1.2195609808
1.1000000238;-0.90434008837
1.1499999762;-0.52956914902
1.2000000477;-0.35980296135
1.25;-0.080210469663
1.2999999523;-9.8607626569e-05
1.3500000238;0.0
1.3999999762;0.0
1.4500000477;0.0
1.5;0.0
1.5499999523;0.0
1.6000000238;0.0
1.6499999762;0.0
1.7000000477;0.0
1.75;0.0
1.7999999523;-0.0033716796897
1.8500000238;-0.26575782895
1.8999999762;-0.52275389433
1.9500000477;-1.0366864204
2.0;-1.4710841179
2.0499999523;-1.7918567657
2.0999999046;-1.8033914566
2.1500000954;-1.5028299093
2.2000000477;-1.2151333094
2.25;-0.90304863453
2.2999999523;-0.75707638264
2.3499999046;-0.70578795671
2.4000000954;-0.62981700897
2.4500000477;-0.42048153281
2.4995000362;-0.1425024122
2.5494999886;-0.14790183306
2.5994999409;0.0
2.6494998932;0.0
2.6995000839;0.0
2.7495000362;0.0
2.7994999886;0.0
2.8494999409;0.0
2.8994998932;0.0
2.9495000839;0.0
2.9995000362;0.0
3.0494999886;0.0
3.0994999409;-0.077599868178
3.1494998932;-0.16363570094
3.1995000839;-0.54703873396
3.2495000362;-0.70751786232
3.2994999886;-0.93026584387
3.3494999409;-0.99179190397
3.3994998932;-1.1246397495
3.4495000839;-1.1697947979
3.4995000362;-1.1639909744
3.5494999886;-1.0508565903
3.5994999409;-0.88904392719
3.6494998932;-0.79624450207
3.6995000839;-0.49186134338
3.7495000362;-0.33418622613
3.7994999886;-0.10559029877
3.8494999409;0.0
3.8994998932;0.0
3.9495000839;0.0
3.9995000362;0.0
4.0494999886;0.0
4.0995001793;0.0
4.1494998932;0.0
4.1995000839;0.0
4.2494997978;0.0
4.2994999886;-0.00016731439973
4.3495001793;-0.12414433062
4.3994998932;-0.17570737004
4.4495000839;-0.40698701143
4.4994997978;-0.54623359442
4.5494999886;-0.75114363432
4.5995001793;-0.86317884922
4.6494998932;-0.97980481386
4.6995000839;-0.99501764774
4.7494997978;-1.0555994511
4.7994999886;-0.96497237682
4.8495001793;-0.92780035734
4.8994998932;-0.78096359968
4.9499998093;-0.62767553329
5.0;-0.47230497003
5.0500001907;-0.30098709464
5.0999999046;-0.1056830734
5.1500000954;-0.030262425542
5.1999998093;-0.0036009768955
5.25;0.0
5.3000001907;0.0
5.3499999046;0.0
5.4000000954;0.0
5.4499998093;0.0
5.5;-7.1311747888e-05
5.5500001907;-0.0596623905
5.5999999046;-0.11693775654
5.6500000954;-0.33409592509
5.6999998093;-0.51226788759
5.75;-0.67860382795
5.8000001907;-0.83080852032
5.8499999046;-1.0034279823
5.9000000954;-1.094415307
5.9499998093;-1.160921216
6.0;-1.1766775846
6.0500001907;-1.1696643829
6.0999999046;-1.0755050182
6.1500000954;-0.97307860851
6.1999998093;-0.81593930721
6.25;-0.65319812298
6.3000001907;-0.4788710475
6.3499999046;-0.32492667437
6.4000000954;-0.20078338683
6.4499998093;-0.091794252396
6.5;-0.012679305859
6.5500001907;0.0
6.5999999046;0.0
6.6500000954;0.0
6.6999998093;-0.017200395465
6.75;-0.029740711674
6.8000001907;-0.10147209466
6.8499999046;-0.19518996775
6.9000000954;-0.30586826801
6.9499998093;-0.45053055882
7.0;-0.61642485857
7.0500001907;-0.76291173697
7.0999999046;-0.8938446641
7.1500000954;-0.96674531698
7.1999998093;-0.98410367966
7.25;-1.0189982653
7.3000001907;-0.92483204603
7.3499999046;-0.85336595774
7.4000000954;-0.71679246426
7.4499998093;-0.59317493439
7.5;-0.40792804956
7.5500001907;-0.30566784739
7.5999999046;-0.11484528333
7.6500000954;-0.052587319165
7.6999998093;-0.0064759450033
7.75;0.0
7.8000001907;0.0
7.8499999046;0.0
7.9000000954;0.0
7.9499998093;-0.0056550712325
8.0;-0.12424894422
8.0500001907;-0.17106118798
8.1000003815;-0.37432959676
8.1499996185;-0.51692843437
8.1999998093;-0.71150499582
8.25;-0.82802778482
8.3000001907;-0.9573392272
8.3500003815;-1.051376462
8.3999996185;-1.1102166176
8.4499998093;-1.1082931757
8.5;-1.0926395655
8.5500001907;-1.0047074556
8.6000003815;-0.91350066662
8.6499996185;-0.78136450052
8.6999998093;-0.62803715467
8.75;-0.48349148035
8.8000001907;-0.33761686087
8.8500003815;-0.19858321548
8.8999996185;-0.11357104778
8.9499998093;-0.040305379778
9.0;-0.011027101427
9.0500001907;-0.035687189549
9.1000003815;-0.053578723222
9.1499996185;-0.12079654634
9.1999998093;-0.22647090256
9.25;-0.39431220293
9.3000001907;-0.49437734485
9.3500003815;-0.71592283249
9.3999996185;-0.83059519529
9.4495000839;-0.99945425987
9.4995002747;-1.1122654676
9.5495004654;-1.2151232958
9.5994997025;-1.2690770626
9.6494998932;-1.289393425
9.6995000839;-1.2724885941
9.7495002747;-1.2300453186
9.7995004654;-1.1372117996
9.8494997025;-1.0134539604
9.8994998932;-0.88732862473
9.9495000839;-0.73732501268
9.9995002747;-0.60272651911
10.049500465;-0.48490765691
10.099499702;-0.37310159206
10.149499893;-0.30736517906
10.199500084;-0.27474489808
10.249500275;-0.26952937245
10.299500465;-0.30688583851
10.349499702;-0.36697942019
10.399499893;-0.43997272849
10.449500084;-0.55448466539
10.499500275;-0.6715632081
10.549500465;-0.77585238218
10.599499702;-0.91856151819
10.649499893;-1.0259394646
10.699500084;-1.1127960682
10.749500275;-1.1796810627
10.799500465;-1.1869688034
10.849499702;-1.1748441458
10.899499893;-1.1182032824
10.949500084;-1.0004256964
10.999500275;-0.8809055686
11.049500465;-0.69348961115
11.099499702;-0.55120503902
11.149499893;-0.36139458418
11.199500084;-0.26949965954
11.249500275;-0.15063086152
11.299500465;-0.12007033825
11.349499702;-0.067700378597
11.399499893;-0.058583479375
11.449500084;-0.049226239324
11.499500275;-0.073326766491
11.549500465;-0.10966842622
11.599499702;-0.1676094234
11.649499893;-0.23753550649
11.699500084;-0.32749205828
11.749500275;-0.42695575953
11.799500465;-0.53623384237
11.849499702;-0.64141285419
11.899499893;-0.71984857321
11.949500084;-0.79724138975
11.999500275;-0.81805187464
12.049500465;-0.84059679508
12.099499702;-0.81358003616
12.149499893;-0.77179431915
12.199500084;-0.69952845573
12.249500275;-0.60882157087
12.299500465;-0.51848995686
12.349499702;-0.41736882925
12.399499893;-0.32550126314
12.449500084;-0.25450885296
12.499500275;-0.18987724185
12.549500465;-0.14757974446
12.599499702;-0.12726543844
12.649499893;-0.11398608983
12.699500084;-0.12472528964
12.749500275;-0.16251268983
12.799500465;-0.21264906228
12.849499702;-0.30684381723
12.899499893;-0.40711000562
12.949500084;-0.51999777555
12.999500275;-0.64210599661
13.049500465;-0.739985466
13.099499702;-0.84364658594
13.149499893;-0.91150134802
13.199500084;-0.95568466187
13.249500275;-0.96796917915
13.299500465;-0.95180314779
13.349499702;-0.91644072533
13.399499893;-0.84943306446
13.449500084;-0.78297716379
13.499500275;-0.68964797258
13.549500465;-0.59717220068
13.599499702;-0.51910471916
13.649499893;-0.42869526148
13.699500084;-0.36877223849
13.749500275;-0.30552905798
13.799500465;-0.29177826643
13.849499702;-0.2819673717
13.899499893;-0.32719525695
13.949500084;-0.37532946467
13.999500275;-0.46251013875
14.049500465;-0.55099314451
14.099499702;-0.66413033009
14.149499893;-0.76246130466
14.199500084;-0.86853182316
14.249500275;-0.95581007004
14.299500465;-1.0318825245
14.349499702;-1.0886007547
14.399499893;-1.1172834635
14.449500084;-1.1291739941
14.499500275;-1.1004890203
14.549500465;-1.0588220358
14.599499702;-0.9788043499
14.649499893;-0.89120066166
14.699500084;-0.78713136911
14.749500275;-0.67403954268
14.799500465;-0.55755096674
14.849499702;-0.44961380959
14.899499893;-0.35022160411
14.949500084;-0.27259939909
14.999500275;-0.20422890782
15.049500465;-0.16407635808
15.099499702;-0.14040912688
15.149499893;-0.13319571316
15.199500084;-0.16603845358
15.249500275;-0.17789638042
15.299500465;-0.24692484736
15.349499702;-0.29762771726
15.399499893;-0.37648174167
15.449500084;-0.44443437457
15.499500275;-0.5154786706
15.549500465;-0.56080949306
15.599499702;-0.60229969025
15.649499893;-0.61663687229
15.699500084;-0.60492706299
15.749500275;-0.56691050529
15.799500465;-0.50898122787
15.849499702;-0.4457077086
15.899499893;-0.36747711897
15.949500084;-0.29995653033
15.999500275;-0.22811937332
16.049499512;-0.16823451221
16.099500656;-0.1274176538
16.149499893;-0.096809230745
16.19949913;-0.082086138427
16.249500275;-0.086136043072
16.299499512;-0.085311822593
16.349500656;-0.11025716364
16.399499893;-0.14089369774
16.44949913;-0.18428987265
16.499500275;-0.24604991078
16.549499512;-0.31373777986
16.599500656;-0.39758944511
16.649499893;-0.4915804863
16.69949913;-0.56949180365
16.749500275;-0.64436382055
16.799499512;-0.68481767178
16.849500656;-0.70897656679
16.899499893;-0.69315731525
16.94949913;-0.65829151869
16.999500275;-0.59591263533
17.049499512;-0.51398396492
17.099500656;-0.432949543
17.149499893;-0.34458324313
17.19949913;-0.27177211642
17.249500275;-0.19988197088
17.299499512;-0.15319642425
17.349500656;-0.12457109988
17.399499893;-0.10293684155
17.44949913;-0.099388971925
17.499500275;-0.11744618416
17.549499512;-0.1339289993
17.599500656;-0.18850241601
17.649499893;-0.2603226006
17.69949913;-0.32992166281
17.749500275;-0.44527724385
17.799499512;-0.53296762705
17.849500656;-0.62615895271
17.899499893;-0.70055133104
17.94949913;-0.75444930792
17.999500275;-0.78925871849
18.049499512;-0.80730313063
18.099500656;-0.78937339783
18.149499893;-0.75351452827
18.19949913;-0.69579356909
18.249500275;-0.62426477671
18.299499512;-0.5415263176
18.349500656;-0.45203691721
18.399499893;-0.36265045404
18.44949913;-0.28475385904
18.499500275;-0.22554154694
18.549499512;-0.18626332283
18.599500656;-0.1631539911
18.649499893;-0.15191936493
18.69949913;-0.16581733525
18.749500275;-0.17458938062
18.799499512;-0.20777465403
18.849500656;-0.23328696191
18.899499893;-0.25917878747
18.94949913;-0.31573328376
18.999500275;-0.33589345217
19.049499512;-0.39620879292
19.099500656;-0.40646401048
19.149499893;-0.43035715818
19.19949913;-0.41186869144
19.249500275;-0.38476151228
19.299499512;-0.34139505029
19.349500656;-0.29355666041
19.399999619;-0.26931196451
19.450000763;-0.23340092599
19.5;-0.21320521832
19.549999237;-0.17967443168
19.600000381;-0.1457632184
19.649999619;-0.12187820673
19.700000763;-0.10194767267
19.75;-0.071720644832
19.799999237;-0.062408365309
19.850000381;-0.049064844847
19.899999619;-0.045863285661
19.950000763;-0.05010548234
20.0;-0.05992988497
20.049999237;-0.073532000184
20.100000381;-0.097062788904
20.149999619;-0.12177181244
20.200000763;-0.15199320018
20.25;-0.1891426295
20.299999237;-0.21950250864
20.350000381;-0.24909116328
20.399999619;-0.27639889717
20.450000763;-0.29307386279
20.5;-0.30307501554
20.549999237;-0.30198836327
20.600000381;-0.29338979721
20.649999619;-0.27446594834
20.700000763;-0.25081366301
20.75;-0.2190220207
20.799999237;-0.18834458292
20.850000381;-0.15018986166
20.899999619;-0.11821226776
20.950000763;-0.083456084132
21.0;-0.061154730618
21.049999237;-0.044381510466
21.100000381;-0.034114278853
21.149999619;-0.031272996217
21.200000763;-0.030364762992
21.25;-0.039473641664
21.299999237;-0.054913733155
21.350000381;-0.081448554993
21.399999619;-0.1128744334
21.450000763;-0.14278686047
21.5;-0.17443944514
21.549999237;-0.19826245308
21.600000381;-0.22146686912
21.649999619;-0.23839519918
21.700000763;-0.25094538927
21.75;-0.24734944105
21.799999237;-0.24038478732
21.850000381;-0.21629408002
21.899999619;-0.19463986158
21.950000763;-0.1586009711
22.0;-0.12208593637
22.049999237;-0.074054896832
22.100000381;-0.03765013814
22.149999619;-0.00093540351372
22.200000763;0.0
22.25;0.0
22.299999237;0.0
22.350000381;0.0
22.399999619;0.0
22.450000763;0.0
22.5;-0.00054102303693
22.549999237;-0.012517439201
22.600000381;-0.031759157777
22.649999619;-0.05050419271
22.700000763;-0.090190649033
22.75;-0.12568590045
22.799999237;-0.14585502446
22.850000381;-0.18099631369
22.899999619;-0.20612764359
22.950000763;-0.21874167025
23.0;-0.23549865186
23.049999237;-0.24024406075
23.100000381;-0.23971548676
23.149999619;-0.2255153358
23.200000763;-0.21652674675
23.25;-0.1835681349
23.299999237;-0.14905698597
23.350000381;-0.11732827127
23.399999619;-0.0850642398
23.450000763;-0.065236762166
23.5;-0.053956352174
23.549999237;-0.044462781399
23.600000381;-0.039252143353
23.649999619;-0.039730407298
23.700000763;-0.038799185306
23.75;-0.040836442262
23.799999237;-0.050630256534
23.850000381;-0.063072100282
23.899999619;-0.087045192719
23.950000763;-0.11281129718
24.0;-0.14381700754
24.049999237;-0.17175804079
24.100000381;-0.19388146698
24.149999619;-0.2133397758
24.200000763;-0.2245349437
24.25;-0.22850444913
24.299999237;-0.22748585045
24.350000381;-0.21832427382
24.399999619;-0.20538780093
24.450000763;-0.19163265824
24.5;-0.17241054773
24.549999237;-0.15038497746
24.600000381;-0.12845112383
24.649999619;-0.10429622233
24.700000763;-0.091250598431
24.75;-0.071351014078
24.799999237;-0.058071993291
24.850000381;-0.04754916206
24.899999619;-0.041104655713
24.950000763;-0.041146244854
25.0;-0.046381339431
25.049999237;-0.057022910565
25.100000381;-0.068836830556
25.149999619;-0.096631430089
25.200000763;-0.12145118415
25.25;-0.14559280872
25.299999237;-0.16584080458
25.350000381;-0.18179132044
25.399999619;-0.18527701497
25.450000763;-0.18646673858
25.5;-0.18770931661
25.549999237;-0.17382209003
25.600000381;-0.16705445945
25.649999619;-0.14635665715
25.700000763;-0.10937803239
25.75;-0.083780005574
25.799999237;-0.038287911564
25.850000381;-0.0261596255
25.899999619;-0.010044598021
25.950000763;-0.0056174015626
26.0;-0.0010408636881
26.049999237;-0.00023730329121
26.100000381;-0.00062075082678
26.149999619;-0.0050605982542
26.200000763;-0.0079660341144
26.25;-0.02152085118
26.299999237;-0.034457854927
26.350000381;-0.061300545931
26.399999619;-0.088623479009
26.450000763;-0.11236807704
26.5;-0.13598164916
26.549999237;-0.16733579338
26.600000381;-0.19781222939
26.649999619;-0.22337599099
26.700000763;-0.24787643552
26.75;-0.2694876492
26.799999237;-0.27736544609
26.850000381;-0.29026058316
26.899999619;-0.27909272909
26.950000763;-0.27299362421
27.0;-0.25521883368
27.049999237;-0.24061654508
27.100000381;-0.23018926382
27.149999619;-0.20974163711
27.200000763;-0.19322454929
27.25;-0.17385320365
27.299999237;-0.14984594285
27.350000381;-0.13431119919
27.399999619;-0.12570552528
27.450000763;-0.12717875838
27.5;-0.13505576551
27.549999237;-0.15215583146
27.600000381;-0.17093212903
27.649999619;-0.18968647718
27.700000763;-0.21609310806
27.75;-0.24032458663
27.799999237;-0.26298797131
27.850000381;-0.28780904412
27.899999619;-0.30551478267
27.950000763;-0.32394590974
28.0;-0.32855778933
28.049999237;-0.33602306247
28.100000381;-0.32818347216
28.149999619;-0.32512122393
28.200000763;-0.31625214219
28.25;-0.30597689748
28.299999237;-0.27908715606
28.350000381;-0.26667457819
28.399999619;-0.24250398576
28.450000763;-0.2281781435
28.5;-0.21561746299
28.549999237;-0.21093864739
28.600000381;-0.20458072424
28.649999619;-0.21653746068
28.700000763;-0.22291994095
28.75;-0.23548731208
28.799999237;-0.25037992001
28.850000381;-0.26894629002
28.899999619;-0.28706845641
28.950000763;-0.30974340439
29.0;-0.3405252099
29.049999237;-0.35977375507
29.100000381;-0.38609394431
29.149999619;-0.40329238772
29.200000763;-0.41487160325
29.25;-0.4341917634
29.299999237;-0.44290462136
29.350000381;-0.45041936636
29.399999619;-0.42956545949
29.450000763;-0.40940487385
29.5;-0.36330223083
29.549999237;-0.33143311739
29.600000381;-0.29392501712
29.649999619;-0.26740524173
29.700000763;-0.24544215202
29.75;-0.21307474375
29.799999237;-0.20515735447
29.850000381;-0.1835924983
29.899999619;-0.20303115249
29.950000763;-0.21114210784
30.0;-0.25448435545
30.049999237;-0.28754764795
30.100000381;-0.32985451818
30.149999619;-0.36411595345
30.200000763;-0.39601051807
30.25;-0.42731371522
30.299999237;-0.46063131094
30.350000381;-0.48853570223
30.399999619;-0.51843219995
30.450000763;-0.53525424004
30.5;-0.54409688711
30.549999237;-0.54528838396
30.600000381;-0.54365724325
30.649999619;-0.54264873266
30.700000763;-0.54117488861
30.75;-0.53082418442
30.799999237;-0.52303624153
30.850000381;-0.49727287889
30.899999619;-0.50019240379
30.950000763;-0.49607297778
31.0;-0.51987868547
31.049999237;-0.54674685001
31.100000381;-0.58537203074
31.149999619;-0.61034691334
31.200000763;-0.64146131277
31.25;-0.64900314808
31.299999237;-0.66075140238
31.350000381;-0.67746031284
31.399999619;-0.70653736591
31.450000763;-0.74558383226
31.5;-0.79378789663
31.549999237;-0.82260644436
31.600000381;-0.85300433636
31.649999619;-0.86376512051
31.700000763;-0.87521559
31.75;-0.88589894772
31.799999237;-0.88725489378
31.850000381;-0.89404517412
31.899999619;-0.89157783985
31.950000763;-0.8898101449
32.0;-0.88930344582
32.049999237;-0.88000804186
32.099998474;-0.87491947412
32.150001526;-0.87490004301
32.200000763;-0.87096375227
32.25;-0.8778783083
32.299999237;-0.88325107098
32.349998474;-0.89916110039
32.400001526;-0.9164429307
32.450000763;-0.95041304827
32.5;-0.97789865732
32.549999237;-1.0181977749
32.599998474;-1.0384720564
32.650001526;-1.0617517233
32.700000763;-1.0697871447
32.75;-1.0792617798
32.799999237;-1.1011031866
32.849998474;-1.1182507277
32.900001526;-1.1250070333
32.950000763;-1.1278457642
33.0;-1.1187839508
33.049999237;-1.0953941345
33.099998474;-1.0767638683
33.150001526;-1.0528976917
33.200000763;-1.0415952206
33.25;-1.0291839838
33.299999237;-1.0208485126
33.349998474;-1.010076642
33.400001526;-0.99628436565
33.450000763;-0.98410695791
33.5;-0.97676944733
33.549999237;-0.97293776274
33.599998474;-0.97747057676
33.650001526;-0.98625940084
33.700000763;-1.0033766031
33.75;-1.0204792023
33.799999237;-1.0443677902
33.849998474;-1.0582355261
33.900001526;-1.0764430761
33.950000763;-1.0816441774
34.0;-1.0895454884
34.049999237;-1.0854189396
34.099998474;-1.0890976191
34.150001526;-1.0784608126
34.200000763;-1.0793312788
34.25;-1.0532768965
34.299999237;-1.0358906984
34.349998474;-1.0165791512
34.400001526;-1.0029497147
34.450000763;-0.99567961693
34.5;-0.98310470581
34.549999237;-0.97488713264
34.599998474;-0.9751175046
34.650001526;-0.97956824303
34.700000763;-0.9946359992
34.75;-1.0067567825
34.799999237;-1.029327631
34.849998474;-1.050506115
34.900001526;-1.076825738
34.950000763;-1.1099689007
35.0;-1.1460484266
35.049999237;-1.1831083298
35.099998474;-1.2172605991
35.150001526;-1.2431805134
35.200000763;-1.2704271078
35.25;-1.2886468172
35.299999237;-1.3024998903
35.349998474;-1.3026049137
35.400001526;-1.2955619097
35.450000763;-1.2928501368
35.5;-1.296683073
35.549999237;-1.3071591854
35.599998474;-1.3106069565
35.650001526;-1.3109374046
35.700000763;-1.309093833
35.75;-1.307474494
35.799999237;-1.3124355078
35.849998474;-1.3153899908
35.900001526;-1.3270802498
35.950000763;-1.3319628239
36.0;-1.3478324413
36.049999237;-1.3566890955
36.099998474;-1.3660386801
36.150001526;-1.373136282
36.200000763;-1.3798683882
36.25;-1.3844879866
36.299999237;-1.3936821222
36.349998474;-1.3967148066
36.400001526;-1.4059617519
36.450000763;-1.4074171782
36.5;-1.4102336168
36.549999237;-1.406545639
36.599998474;-1.4029712677
36.650001526;-1.3885749578
36.700000763;-1.3758453131
36.75;-1.3552451134
36.799999237;-1.3352534771
36.849998474;-1.3195439577
