Time [s];Force [kN]
0.0;0.0
0.049499999732;0.0
0.099500000477;0.0
0.1494999975;0.0
0.19949999452;0.0
0.24950000644;0.0
0.29949998856;0.0
0.34950000048;0.0
0.3995000124;0.0
0.44949999452;0.0
0.49950000644;-0.050534561276
0.55000001192;-0.37337955832
0.60000002384;-0.86766946316
0.64999997616;-1.2942847013
0.69999998808;-1.6098744869
0.75;-1.8370070457
0.80000001192;-2.0644600391
0.85000002384;-2.1900053024
0.89999997616;-2.2077524662
0.94999998808;-1.9301825762
1.0;-1.576800704
1.0499999523;-1.2195609808
1.1000000238;-0.90434008837
1.1499999762;-0.52956914902
1.2000000477;-0.35980296135
1.25;-0.080210469663
1.2999999523;-9.8607626569e-05
1.3500000238;0.0
1.3999999762;0.0
1.4500000477;0.0
1.5;0.0
1.5499999523;0.0
1.6000000238;0.0
1.6499999762;0.0
1.7000000477;0.0
1.75;0.0
1.7999999523;-0.0033716796897
1.8500000238;-0.26575782895
1.8999999762;-0.52275389433
1.9500000477;-1.0366864204
2.0;-1.4710841179
2.0499999523;-1.7918567657
2.0999999046;-1.8040335178
2.1500000954;-1.5026417971
2.2000000477;-1.2171077728
2.25;-0.9020819664
2.2999999523;-0.75872862339
2.3499999046;-0.70829188824
2.4000000954;-0.63267290592
2.4500000477;-0.42509606481
2.4995000362;-0.14645755291
2.5494999886;-0.15261361003
2.5994999409;0.0
2.6494998932;0.0
2.6995000839;0.0
2.7495000362;0.0
2.7994999886;0.0
2.8494999409;0.0
2.8994998932;0.0
2.9495000839;0.0
2.9995000362;0.0
3.0494999886;0.0
3.0994999409;-0.10710338503
3.1494998932;-0.17888076603
3.1995000839;-0.5933701396
3.2495000362;-0.75463336706
3.2994999886;-0.96364986897
3.3494999409;-1.0250302553
3.3994998932;-1.1521002054
3.4495000839;-1.1870219707
3.4995000362;-1.1707310677
3.5494999886;-1.0765142441
3.5994999409;-0.90989923477
3.6494998932;-0.81557106972
3.6995000839;-0.52572792768
3.7495000362;-0.34448128939
3.7994999886;-0.12236750871
3.8494999409;-0.00015444206656
3.8994998932;0.0
3.9495000839;0.0
3.9995000362;0.0
4.0494999886;0.0
4.0995001793;0.0
4.1494998932;0.0
4.1995000839;0.0
4.2494997978;0.0
4.2994999886;-0.046849969774
4.3495001793;-0.13701359928
4.3994998932;-0.26492923498
4.4495000839;-0.46673861146
4.4994997978;-0.65190178156
4.5494999886;-0.82027554512
4.5995001793;-0.94035601616
4.6494998932;-1.0367689133
4.6995000839;-1.0459848642
4.7494997978;-1.0754286051
4.7994999886;-1.0070829391
4.8495001793;-0.95457959175
4.8994998932;-0.7891201973
4.9499998093;-0.66149055958
5.0;-0.47815778852
5.0500001907;-0.31271314621
5.0999999046;-0.13274550438
5.1500000954;-0.051307655871
5.1999998093;-0.015685623512
5.25;-0.00020816613687
5.3000001907;0.0
5.3499999046;0.0
5.4000000954;0.0
5.4499998093;-4.1323551159e-06
5.5;-0.06712076813
5.5500001907;-0.11718337983
5.5999999046;-0.28490561247
5.6500000954;-0.43633714318
5.6999998093;-0.66666299105
5.75;-0.78384923935
5.8000001907;-0.99134856462
5.8499999046;-1.137609601
5.9000000954;-1.2187772989
5.9499998093;-1.2748329639
6.0;-1.2737514973
6.0500001907;-1.2150602341
6.0999999046;-1.1506631374
6.1500000954;-0.96905386448
6.1999998093;-0.82965731621
6.25;-0.66010951996
6.3000001907;-0.48743608594
6.3499999046;-0.33130627871
6.4000000954;-0.20877248049
6.4499998093;-0.10724963993
6.5;-0.037611294538
6.5500001907;-0.018915977329
6.5999999046;-0.00043602168444
6.6500000954;-0.015344691463
6.6999998093;-0.038849726319
6.75;-0.084208451211
6.8000001907;-0.18498210609
6.8499999046;-0.26696920395
6.9000000954;-0.46299353242
6.9499998093;-0.59118396044
7.0;-0.78618121147
7.0500001907;-0.91717028618
7.0999999046;-1.0295579433
7.1500000954;-1.0859841108
7.1999998093;-1.0733190775
7.25;-1.0764038563
7.3000001907;-0.94803488255
7.3499999046;-0.86584669352
7.4000000954;-0.70447707176
7.4499998093;-0.57862395048
7.5;-0.40409454703
7.5500001907;-0.28091445565
7.5999999046;-0.13025698066
7.6500000954;-0.08115876466
7.6999998093;-0.027605393901
7.75;-0.0080066705123
7.8000001907;-0.011347135529
7.8499999046;-0.019571008161
7.9000000954;-0.034831725061
7.9499998093;-0.13821448386
8.0;-0.24220985174
8.0500001907;-0.3839893043
8.1000003815;-0.56663972139
8.1499996185;-0.73278480768
8.1999998093;-0.88446861506
8.25;-1.0198168755
8.3000001907;-1.1209954023
8.3500003815;-1.2102515697
8.3999996185;-1.2240742445
8.4499998093;-1.2172421217
8.5;-1.1665008068
8.5500001907;-1.0554686785
8.6000003815;-0.95044600964
8.6499996185;-0.7852075696
8.6999998093;-0.64258784056
8.75;-0.48914569616
8.8000001907;-0.3628950417
8.8500003815;-0.25429591537
8.8999996185;-0.17006094754
8.9499998093;-0.12651059031
9.0;-0.12462650239
9.0500001907;-0.14864383638
9.1000003815;-0.21576629579
9.1499996185;-0.32032823563
9.1999998093;-0.4300263226
9.25;-0.59626442194
9.3000001907;-0.74030214548
9.3500003815;-0.89398002625
9.3999996185;-1.0486416817
9.4495000839;-1.1739159822
9.4995002747;-1.3011236191
9.5495004654;-1.3655580282
9.5994997025;-1.4061727524
9.6494998932;-1.3959825039
9.6995000839;-1.3343117237
9.7495002747;-1.2620779276
9.7995004654;-1.1473790407
9.8494997025;-1.0204311609
9.8994998932;-0.890855968
9.9495000839;-0.73760402203
9.9995002747;-0.63043707609
10.049500465;-0.49163705111
10.099499702;-0.43358391523
10.149499893;-0.35536381602
10.199500084;-0.3597741127
10.249500275;-0.36276507378
10.299500465;-0.41493391991
10.349499702;-0.4772016108
10.399499893;-0.57946664095
10.449500084;-0.67736577988
10.499500275;-0.81299835443
10.549500465;-0.92612147331
10.599499702;-1.0509028435
10.649499893;-1.1317156553
10.699500084;-1.193111062
10.749500275;-1.2032519579
10.799500465;-1.1973736286
10.849499702;-1.1254239082
10.899499893;-1.0304358006
10.949500084;-0.90968847275
10.999500275;-0.77271610498
11.049500465;-0.64822870493
11.099499702;-0.51796603203
11.149499893;-0.40342828631
11.199500084;-0.2987331152
11.249500275;-0.23214718699
11.299500465;-0.17523039877
11.349499702;-0.15279345214
11.399499893;-0.14527478814
11.449500084;-0.1430387944
11.499500275;-0.17425072193
11.549500465;-0.21752427518
11.599499702;-0.28254026175
11.649499893;-0.37301743031
11.699500084;-0.47444576025
11.749500275;-0.58263796568
11.799500465;-0.69329065084
11.849499702;-0.7877574563
11.899499893;-0.87763613462
11.949500084;-0.93259602785
11.999500275;-0.96386939287
12.049500465;-0.95386207104
12.099499702;-0.9340749979
12.149499893;-0.86288326979
12.199500084;-0.79838371277
12.249500275;-0.70201420784
12.299500465;-0.61025547981
12.349499702;-0.50548738241
12.399499893;-0.42342475057
12.449500084;-0.34160199761
12.499500275;-0.28590780497
12.549500465;-0.22805920243
12.599499702;-0.23502118886
12.649499893;-0.23415783048
12.699500084;-0.28357976675
12.749500275;-0.34706550837
12.799500465;-0.4366735816
12.849499702;-0.53450536728
12.899499893;-0.65358263254
12.949500084;-0.75607794523
12.999500275;-0.86154872179
13.049500465;-0.94251018763
13.099499702;-1.0283497572
13.149499893;-1.078316927
13.199500084;-1.1029583216
13.249500275;-1.1063475609
13.299500465;-1.0721160173
13.349499702;-1.0165425539
13.399499893;-0.94623088837
13.449500084;-0.85278522968
13.499500275;-0.76588594913
13.549500465;-0.67662006617
13.599499702;-0.5925475359
13.649499893;-0.54059630632
13.699500084;-0.48176714778
13.749500275;-0.48101559281
13.799500465;-0.47831344604
13.849499702;-0.51287174225
13.899499893;-0.55850404501
13.949500084;-0.63280743361
13.999500275;-0.72201263905
14.049500465;-0.8093239665
14.099499702;-0.9169741869
14.149499893;-1.0017622709
14.199500084;-1.0979481936
14.249500275;-1.1666667461
14.299500465;-1.2182627916
14.349499702;-1.2469115257
14.399499893;-1.2471512556
14.449500084;-1.2288621664
14.499500275;-1.1624051332
14.549500465;-1.0783827305
14.599499702;-0.96897089481
14.649499893;-0.84315979481
14.699500084;-0.71441960335
14.749500275;-0.59369826317
14.799500465;-0.46328234673
14.849499702;-0.38316914439
14.899499893;-0.2740303576
14.949500084;-0.22559954226
14.999500275;-0.1994445622
15.049500465;-0.19653487206
15.099499702;-0.23479132354
15.149499893;-0.28230515122
15.199500084;-0.32587942481
15.249500275;-0.39875385165
15.299500465;-0.4753382802
15.349499702;-0.5444715023
15.399499893;-0.62584292889
15.449500084;-0.6911367178
15.499500275;-0.7343108654
15.549500465;-0.75765043497
15.599499702;-0.75373768806
15.649499893;-0.72515398264
15.699500084;-0.67862778902
15.749500275;-0.62337350845
15.799500465;-0.54998731613
15.849499702;-0.48110923171
15.899499893;-0.40442302823
15.949500084;-0.3551850915
15.999500275;-0.29779857397
16.049499512;-0.26310300827
16.099500656;-0.23185037076
16.149499893;-0.22051042318
16.19949913;-0.22444267571
16.249500275;-0.25148031116
16.299499512;-0.28918406367
16.349500656;-0.34269753098
16.399499893;-0.41448360682
16.44949913;-0.48818418384
16.499500275;-0.57740813494
16.549499512;-0.65911716223
16.599500656;-0.73079925776
16.649499893;-0.78890627623
16.69949913;-0.83764106035
16.749500275;-0.86874991655
16.799499512;-0.87119048834
16.849500656;-0.84398758411
16.899499893;-0.7903599143
16.94949913;-0.71915107965
16.999500275;-0.64172005653
17.049499512;-0.57384181023
17.099500656;-0.50407141447
17.149499893;-0.43647670746
17.19949913;-0.38037973642
17.249500275;-0.33325648308
17.299499512;-0.30907699466
17.349500656;-0.30268490314
17.399499893;-0.3296572268
17.44949913;-0.36852416396
17.499500275;-0.43063810468
17.549499512;-0.49429619312
17.599500656;-0.56942671537
17.649499893;-0.65009832382
17.69949913;-0.722427845
17.749500275;-0.80634069443
17.799499512;-0.86373502016
17.849500656;-0.91098713875
17.899499893;-0.93450021744
17.94949913;-0.94068682194
17.999500275;-0.91809856892
18.049499512;-0.88869416714
18.099500656;-0.8446700573
18.149499893;-0.78836393356
18.19949913;-0.73250496387
18.249500275;-0.66108620167
18.299499512;-0.59444785118
18.349500656;-0.51884776354
18.399499893;-0.45368915796
18.44949913;-0.38360118866
18.499500275;-0.33621385694
18.549499512;-0.28998830914
18.599500656;-0.27118125558
18.649499893;-0.25347685814
18.69949913;-0.26316604018
18.749500275;-0.26507386565
18.799499512;-0.29276448488
18.849500656;-0.30776065588
18.899499893;-0.32847568393
18.94949913;-0.3596740067
18.999500275;-0.37936162949
19.049499512;-0.39506843686
19.099500656;-0.41404852271
19.149499893;-0.40510973334
19.19949913;-0.39611655474
19.249500275;-0.38845586777
19.299499512;-0.35821083188
19.349500656;-0.33418649435
19.399999619;-0.29973402619
19.450000763;-0.26482999325
19.5;-0.22944945097
19.549999237;-0.20082493126
19.600000381;-0.17445757985
19.649999619;-0.14935788512
19.700000763;-0.13675305247
19.75;-0.12769119442
19.799999237;-0.12806469202
19.850000381;-0.13201889396
19.899999619;-0.14058698714
19.950000763;-0.15182386339
20.0;-0.17178156972
20.049999237;-0.19737830758
20.100000381;-0.22543029487
20.149999619;-0.25639304519
20.200000763;-0.29017370939
20.25;-0.31437391043
20.299999237;-0.33832520247
20.350000381;-0.35038423538
20.399999619;-0.35469031334
20.450000763;-0.34821924567
20.5;-0.33617809415
20.549999237;-0.31263414025
20.600000381;-0.28736057878
20.649999619;-0.25351431966
20.700000763;-0.21977046132
20.75;-0.17795927823
20.799999237;-0.13950952888
20.850000381;-0.1080077216
20.899999619;-0.078960545361
20.950000763;-0.058914713562
21.0;-0.053707510233
21.049999237;-0.048660006374
21.100000381;-0.054777570069
21.149999619;-0.068436965346
21.200000763;-0.082743383944
21.25;-0.10370483249
21.299999237;-0.13716050982
21.350000381;-0.17069014907
21.399999619;-0.20587386191
21.450000763;-0.23755431175
21.5;-0.27082684636
21.549999237;-0.29659369588
21.600000381;-0.31092712283
21.649999619;-0.31706854701
21.700000763;-0.30593276024
21.75;-0.29467922449
21.799999237;-0.28119570017
21.850000381;-0.26827901602
21.899999619;-0.25003495812
21.950000763;-0.23269820213
22.0;-0.21477051079
22.049999237;-0.20179878175
22.100000381;-0.18709143996
22.149999619;-0.18053437769
22.200000763;-0.17913213372
22.25;-0.17896494269
22.299999237;-0.18631801009
22.350000381;-0.19732291996
22.399999619;-0.21365731955
22.450000763;-0.2303557992
22.5;-0.24749937654
22.549999237;-0.26865485311
22.600000381;-0.28424206376
22.649999619;-0.30887639523
22.700000763;-0.32549896836
22.75;-0.33825176954
22.799999237;-0.34934896231
22.850000381;-0.35462075472
22.899999619;-0.35243949294
22.950000763;-0.34356537461
23.0;-0.33036255836
23.049999237;-0.31073021889
23.100000381;-0.2880320549
23.149999619;-0.26135450602
23.200000763;-0.2324359715
23.25;-0.20681923628
23.299999237;-0.18510787189
23.350000381;-0.16610637307
23.399999619;-0.14901922643
23.450000763;-0.13727636635
23.5;-0.12808825076
23.549999237;-0.12826432288
23.600000381;-0.13470970094
23.649999619;-0.14425930381
23.700000763;-0.16273936629
23.75;-0.18621319532
23.799999237;-0.21330805123
23.850000381;-0.24205368757
23.899999619;-0.26907512546
23.950000763;-0.29127344489
24.0;-0.30805176497
24.049999237;-0.31738910079
24.100000381;-0.31844198704
24.149999619;-0.30914354324
24.200000763;-0.29250070453
24.25;-0.26505362988
24.299999237;-0.24465176463
24.350000381;-0.21972791851
24.399999619;-0.19336736202
24.450000763;-0.17118565738
24.5;-0.14953947067
24.549999237;-0.13134121895
24.600000381;-0.1192079559
24.649999619;-0.1159850508
24.700000763;-0.10834006965
24.75;-0.11383682489
24.799999237;-0.12430149317
24.850000381;-0.13838304579
24.899999619;-0.15743531287
24.950000763;-0.18441423774
25.0;-0.21217219532
25.049999237;-0.23938885331
25.100000381;-0.27486780286
25.149999619;-0.29969587922
25.200000763;-0.32605260611
25.25;-0.35058858991
25.299999237;-0.36661964655
25.350000381;-0.3745829761
25.399999619;-0.38392955065
25.450000763;-0.37653040886
25.5;-0.36530715227
25.549999237;-0.35453081131
25.600000381;-0.32952857018
25.649999619;-0.31507644057
25.700000763;-0.29971185327
25.75;-0.28356447816
25.799999237;-0.27462497354
25.850000381;-0.26533526182
25.899999619;-0.26356694102
25.950000763;-0.26340174675
26.0;-0.27563866973
26.049999237;-0.29326346517
26.100000381;-0.31204888225
26.149999619;-0.34353971481
26.200000763;-0.36493450403
26.25;-0.39540159702
26.299999237;-0.43056261539
26.350000381;-0.47074455023
26.399999619;-0.50896972418
26.450000763;-0.53904527426
26.5;-0.56194925308
26.549999237;-0.5685672164
26.600000381;-0.56978398561
26.649999619;-0.55816107988
26.700000763;-0.54346287251
26.75;-0.52260810137
26.799999237;-0.50489348173
26.850000381;-0.48398718238
26.899999619;-0.45900189877
26.950000763;-0.43827557564
27.0;-0.41853973269
27.049999237;-0.40242910385
27.100000381;-0.39546886086
27.149999619;-0.39478769898
27.200000763;-0.40391081572
27.25;-0.42447838187
27.299999237;-0.44837042689
27.350000381;-0.48407581449
27.399999619;-0.52011233568
27.450000763;-0.56745958328
27.5;-0.61559289694
27.549999237;-0.66756623983
27.600000381;-0.70728212595
27.649999619;-0.74647772312
27.700000763;-0.77281856537
27.75;-0.79827493429
27.799999237;-0.81609880924
27.850000381;-0.82819527388
27.899999619;-0.83388906717
27.950000763;-0.82009130716
28.0;-0.79905575514
28.049999237;-0.75626027584
28.100000381;-0.71401834488
28.149999619;-0.67216438055
28.200000763;-0.63959115744
28.25;-0.62068766356
28.299999237;-0.61630320549
28.350000381;-0.61783897877
28.399999619;-0.63388133049
28.450000763;-0.66026544571
28.5;-0.68789869547
28.549999237;-0.72382390499
28.600000381;-0.75789487362
28.649999619;-0.79824447632
28.700000763;-0.83217036724
28.75;-0.87408536673
28.799999237;-0.90935438871
28.850000381;-0.94393312931
28.899999619;-0.97389626503
28.950000763;-0.98532599211
29.0;-0.98789155483
29.049999237;-0.97469186783
29.100000381;-0.96223884821
29.149999619;-0.94174915552
29.200000763;-0.92435753345
29.25;-0.91115355492
29.299999237;-0.88622885942
29.350000381;-0.8726426959
29.399999619;-0.85091042519
29.450000763;-0.85145819187
29.5;-0.8564248085
29.549999237;-0.87010604143
29.600000381;-0.89511173964
29.649999619;-0.91811305285
29.700000763;-0.94979381561
29.75;-0.98854660988
29.799999237;-1.0327761173
29.850000381;-1.0828155279
29.899999619;-1.1404106617
29.950000763;-1.1865848303
30.0;-1.2328885794
30.049999237;-1.2645674944
30.100000381;-1.2880092859
30.149999619;-1.3096089363
30.200000763;-1.3334850073
30.25;-1.3538169861
30.299999237;-1.3699444532
30.350000381;-1.3762797117
30.399999619;-1.3716127872
30.450000763;-1.3661689758
30.5;-1.3624796867
30.549999237;-1.363458395
30.600000381;-1.3643043041
30.649999619;-1.3690907955
30.700000763;-1.3715853691
30.75;-1.3825765848
30.799999237;-1.3998740911
30.850000381;-1.4333968163
30.899999619;-1.4685388803
30.950000763;-1.5133221149
31.0;-1.5565977097
31.049999237;-1.6026968956
31.100000381;-1.6482453346
31.149999619;-1.6951910257
31.200000763;-1.7379894257
31.25;-1.7770453691
31.299999237;-1.8043166399
31.350000381;-1.8245354891
31.399999619;-1.8245311975
31.450000763;-1.808609724
31.5;-1.7820439339
31.549999237;-1.7553120852
31.600000381;-1.7324546576
31.649999619;-1.7163667679
31.700000763;-1.6985684633
31.75;-1.6800763607
31.799999237;-1.6611038446
31.850000381;-1.6447682381
31.899999619;-1.6417521238
31.950000763;-1.6472693682
32.0;-1.6614687443
32.049999237;-1.6825140715
32.099998474;-1.7025822401
32.150001526;-1.7294876575
32.200000763;-1.7614893913
32.25;-1.7956321239
32.299999237;-1.8325366974
32.349998474;-1.8661619425
32.400001526;-1.8933957815
32.450000763;-1.9150086641
32.5;-1.9192006588
32.549999237;-1.9161287546
32.599998474;-1.9054476023
32.650001526;-1.8872506618
32.700000763;-1.8668948412
32.75;-1.8507548571
32.799999237;-1.8195213079
32.849998474;-1.7860321999
32.900001526;-1.7348724604
32.950000763;-1.6990020275
33.0;-1.6696972847
33.049999237;-1.6600489616
33.099998474;-1.6626013517
33.150001526;-1.674569726
33.200000763;-1.6859762669
33.25;-1.7090762854
33.299999237;-1.7482392788
33.349998474;-1.789730072
33.400001526;-1.8398464918
33.450000763;-1.8809740543
33.5;-1.9158997536
33.549999237;-1.9450718164
33.599998474;-1.9656524658
33.650001526;-1.997243166
33.700000763;-2.0189857483
33.75;-2.0396704674
33.799999237;-2.0516486168
33.849998474;-2.0553810596
33.900001526;-2.0481235981
33.950000763;-2.0333271027
34.0;-2.0140650272
34.049999237;-1.9940676689
34.099998474;-1.9791078568
34.150001526;-1.9719214439
34.200000763;-1.9616987705
34.25;-1.9609845877
34.299999237;-1.9599610567
34.349998474;-1.971629858
34.400001526;-1.9913191795
34.450000763;-2.0220179558
34.5;-2.0527875423
34.549999237;-2.0902562141
34.599998474;-2.1238162518
34.650001526;-2.1648931503
34.700000763;-2.201624155
34.75;-2.2379977703
34.799999237;-2.2640373707
34.849998474;-2.2757737637
34.900001526;-2.2760760784
34.950000763;-2.261977911
35.0;-2.2432000637
35.049999237;-2.2216212749
35.099998474;-2.1942944527
35.150001526;-2.172755003
35.200000763;-2.1414821148
35.25;-2.1123616695
35.299999237;-2.0852298737
35.349998474;-2.0557823181
35.400001526;-2.0316722393
35.450000763;-2.0109629631
35.5;-1.9988001585
35.549999237;-1.9991867542
35.599998474;-2.0092098713
35.650001526;-2.027547121
35.700000763;-2.0573577881
35.75;-2.0797731876
35.799999237;-2.1126389503
35.849998474;-2.1351585388
35.900001526;-2.1604392529
35.950000763;-2.1736965179
36.0;-2.1820485592
36.049999237;-2.1808946133
36.099998474;-2.1763780117
36.150001526;-2.1651141644
36.200000763;-2.1576046944
36.25;-2.1436607838
36.299999237;-2.1275854111
36.349998474;-2.1095376015
36.400001526;-2.0863857269
36.450000763;-2.060090065
36.5;-2.0423996449
36.549999237;-2.0183222294
36.599998474;-2.006187439
36.650001526;-1.9946370125
36.700000763;-1.9910936356
36.75;-1.9986401796
36.799999237;-2.0083703995
