Time [s];Force [kN]
0.0;0.0
0.049499999732;0.0
0.099500000477;0.0
0.1494999975;0.0
0.19949999452;0.0
0.24950000644;0.0
0.29949998856;0.0
0.34950000048;0.0
0.3995000124;0.0
0.44949999452;0.0
0.49950000644;-0.050594978034
0.55000001192;-0.37381857634
0.60000002384;-0.86914020777
0.64999997616;-1.2934910059
0.69999998808;-1.5851376057
0.75;-1.8522298336
0.80000001192;-2.0456774235
0.85000002384;-2.2047355175
0.89999997616;-2.2157337666
0.94999998808;-1.9309742451
1.0;-1.5735054016
1.0499999523;-1.2225836515
1.1000000238;-0.87958484888
1.1499999762;-0.52546489239
1.2000000477;-0.35074418783
1.25;-0.10177928954
1.2999999523;-0.00017315711011
1.3500000238;0.0
1.3999999762;0.0
1.4500000477;0.0
1.5;0.0
1.5499999523;0.0
1.6000000238;0.0
1.6499999762;0.0
1.7000000477;0.0
1.75;0.0
1.7999999523;-0.0016586552374
1.8500000238;-0.16691087186
1.8999999762;-0.31366485357
1.9500000477;-0.89681190252
2.0;-1.3181101084
2.0499999523;-1.8250317574
2.0999999046;-1.8447469473
2.1500000954;-1.7668750286
2.2000000477;-1.2311549187
2.25;-1.0832300186
2.2999999523;-0.8366664052
2.3499999046;-0.66633987427
2.4000000954;-0.61308079958
2.4500000477;-0.47781065106
2.4995000362;-0.24311974645
2.5494999886;-0.1724216491
2.5994999409;0.0
2.6494998932;-0.013097953051
2.6995000839;0.0
2.7495000362;0.0
2.7994999886;0.0
2.8494999409;0.0
2.8994998932;0.0
2.9495000839;0.0
2.9995000362;0.0
3.0494999886;0.0
3.0994999409;0.0
3.1494998932;-0.011079533026
3.1995000839;-0.30176141858
3.2495000362;-0.318318367
3.2994999886;-0.53568416834
3.3494999409;-0.75386756659
3.3994998932;-0.97411352396
3.4495000839;-1.130442977
3.4995000362;-1.1861116886
3.5494999886;-1.0956339836
3.5994999409;-1.184140563
3.6494998932;-0.94012588263
3.6995000839;-0.87447601557
3.7495000362;-0.62761741877
3.7994999886;-0.34696939588
3.8494999409;-0.14318805933
3.8994998932;-0.01289432589
3.9495000839;0.0
3.9995000362;0.0
4.0494999886;0.0
4.0995001793;0.0
4.1494998932;0.0
4.1995000839;0.0
4.2494997978;0.0
4.2994999886;0.0
4.3495001793;0.0
4.3994998932;0.0
4.4495000839;-0.030525723472
4.4994997978;-0.1144278869
4.5494999886;-0.16212452948
4.5995001793;-0.41611853242
4.6494998932;-0.54584062099
4.6995000839;-0.65500420332
4.7494997978;-0.77235043049
4.7994999886;-0.87035995722
4.8495001793;-0.83454012871
4.8994998932;-0.84155589342
4.9499998093;-0.80349040031
5.0;-0.70604842901
5.0500001907;-0.64626854658
5.0999999046;-0.45249333978
5.1500000954;-0.38729840517
5.1999998093;-0.16319729388
5.25;-0.096672214568
5.3000001907;-0.017400339246
5.3499999046;0.0
5.4000000954;0.0
5.4499998093;0.0
5.5;0.0
5.5500001907;0.0
5.5999999046;0.0
5.6500000954;0.0
5.6999998093;0.0
5.75;0.0
5.8000001907;-0.0059107248671
5.8499999046;-0.21083571017
5.9000000954;-0.24612861872
5.9499998093;-0.50196498632
6.0;-0.64624726772
6.0500001907;-0.80042362213
6.0999999046;-0.93337416649
6.1500000954;-0.96012228727
6.1999998093;-0.98643660545
6.25;-0.95397800207
6.3000001907;-0.88798135519
6.3499999046;-0.85219329596
6.4000000954;-0.70892584324
6.4499998093;-0.55889636278
6.5;-0.43950775266
6.5500001907;-0.26849326491
6.5999999046;-0.16105353832
6.6500000954;-0.025702040642
6.6999998093;-0.0037144992966
6.75;0.0
6.8000001907;0.0
6.8499999046;0.0
6.9000000954;0.0
6.9499998093;0.0
7.0;0.0
7.0500001907;0.0
7.0999999046;-0.001405892428
7.1500000954;-0.027313455939
7.1999998093;-0.15754291415
7.25;-0.28481918573
7.3000001907;-0.39243510365
7.3499999046;-0.5230525732
7.4000000954;-0.6112228632
7.4499998093;-0.67437034845
7.5;-0.70995795727
7.5500001907;-0.72097706795
7.5999999046;-0.64674019814
7.6500000954;-0.62750053406
7.6999998093;-0.50293892622
7.75;-0.43527936935
7.8000001907;-0.30430331826
7.8499999046;-0.19049780071
7.9000000954;-0.087235346437
7.9499998093;-0.026122052222
8.0;-0.00010513731104
8.0500001907;0.0
8.1000003815;0.0
8.1499996185;0.0
8.1999998093;0.0
8.25;0.0
8.3000001907;0.0
8.3500003815;0.0
8.3999996185;-0.037022560835
8.4499998093;-0.093741640449
8.5;-0.22810184956
8.5500001907;-0.34831652045
8.6000003815;-0.49655124545
8.6499996185;-0.60125482082
8.6999998093;-0.7094040513
8.75;-0.74612230062
8.8000001907;-0.80671453476
8.8500003815;-0.74781167507
8.8999996185;-0.73808807135
8.9499998093;-0.63678181171
9.0;-0.55299925804
9.0500001907;-0.44395413995
9.1000003815;-0.3305029273
9.1499996185;-0.2216450274
9.1999998093;-0.12231520563
9.25;-0.070915706456
9.3000001907;-0.011005460285
9.3500003815;0.0
9.3999996185;0.0
9.4495000839;0.0
9.4995002747;-0.00076438911492
9.5495004654;-0.0707603544
9.5994997025;-0.092518046498
9.6494998932;-0.21899935603
9.6995000839;-0.33024784923
9.7495002747;-0.44151222706
9.7995004654;-0.56976574659
9.8494997025;-0.68335127831
9.8994998932;-0.77889817953
9.9495000839;-0.88657736778
9.9995002747;-0.92951607704
10.049500465;-0.96368432045
10.099499702;-0.93597394228
10.149499893;-0.92665159702
10.199500084;-0.84270650148
10.249500275;-0.79254430532
10.299500465;-0.66216796637
10.349499702;-0.58245402575
10.399499893;-0.44905343652
10.449500084;-0.37909287214
10.499500275;-0.27890992165
10.549500465;-0.2188526988
10.599499702;-0.1744967401
10.649499893;-0.16100269556
10.699500084;-0.16493220627
10.749500275;-0.19080123305
10.799500465;-0.24750106037
10.849499702;-0.30415570736
10.899499893;-0.37196239829
10.949500084;-0.44076520205
10.999500275;-0.49755257368
11.049500465;-0.54108983278
11.099499702;-0.58371818066
11.149499893;-0.5993039012
11.199500084;-0.60660588741
11.249500275;-0.58409273624
11.299500465;-0.54760766029
11.349499702;-0.46820390224
11.399499893;-0.40483000875
11.449500084;-0.33537819982
11.499500275;-0.26203364134
11.549500465;-0.20927415788
11.599499702;-0.15007184446
11.649499893;-0.079055652022
11.699500084;-0.034740760922
11.749500275;-0.002617784543
11.799500465;0.0
11.849499702;0.0
11.899499893;0.0
11.949500084;0.0
11.999500275;0.0
12.049500465;0.0
12.099499702;-0.0019300514832
12.149499893;-0.038394123316
12.199500084;-0.072842508554
12.249500275;-0.14290426672
12.299500465;-0.21335634589
12.349499702;-0.26972490549
12.399499893;-0.33865690231
12.449500084;-0.39914801717
12.499500275;-0.43980294466
12.549500465;-0.46013796329
12.599499702;-0.47077658772
12.649499893;-0.45109453797
12.699500084;-0.41997042298
12.749500275;-0.35890713334
12.799500465;-0.29195955396
12.849499702;-0.2166698128
12.899499893;-0.15507853031
12.949500084;-0.10145454854
12.999500275;-0.043944776058
13.049500465;-0.015500717796
13.099499702;-0.0037119102199
13.149499893;0.0
13.199500084;-0.0024202661589
13.249500275;-0.022273888811
13.299500465;-0.028847554699
13.349499702;-0.073507905006
13.399499893;-0.13362771273
13.449500084;-0.19298709929
13.499500275;-0.28270280361
13.549500465;-0.35885161161
13.599499702;-0.45837664604
13.649499893;-0.52895241976
13.699500084;-0.58616644144
13.749500275;-0.63556998968
13.799500465;-0.63654828072
13.849499702;-0.64102327824
13.899499893;-0.61759221554
13.949500084;-0.57792377472
13.999500275;-0.53596740961
14.049500465;-0.47504833341
14.099499702;-0.41857355833
14.149499893;-0.35989439487
14.199500084;-0.31015565991
14.249500275;-0.26201280951
14.299500465;-0.23402830958
14.349499702;-0.20725619793
14.399499893;-0.21987235546
14.449500084;-0.22343105078
14.499500275;-0.27893096209
14.549500465;-0.31479507685
14.599499702;-0.39707753062
14.649499893;-0.45238760114
14.699500084;-0.53174799681
14.749500275;-0.59774523973
14.799500465;-0.6521114707
14.849499702;-0.70229411125
14.899499893;-0.73490947485
14.949500084;-0.75072467327
14.999500275;-0.74478256702
15.049500465;-0.72289335728
15.099499702;-0.66896224022
15.149499893;-0.61258381605
15.199500084;-0.52911424637
15.249500275;-0.43461176753
15.299500465;-0.33591765165
15.349499702;-0.22871540487
15.399499893;-0.13477939367
15.449500084;-0.038252089173
15.499500275;-4.1177455046e-07
15.549500465;0.0
15.599499702;0.0
15.649499893;0.0
15.699500084;0.0
15.749500275;0.0
15.799500465;0.0
15.849499702;0.0
15.899499893;-0.007634289097
15.949500084;-0.023803176358
15.999500275;-0.056251727045
16.049499512;-0.1351545155
16.099500656;-0.148835361
16.149499893;-0.18400938809
16.19949913;-0.21918584406
16.249500275;-0.21364066005
16.299499512;-0.21070238948
16.349500656;-0.19887836277
16.399499893;-0.16954652965
16.44949913;-0.14004056156
16.499500275;-0.1136552617
16.549499512;-0.074074059725
16.599500656;-0.03858416155
16.649499893;-0.0079193254933
16.69949913;0.0
16.749500275;0.0
16.799499512;0.0
16.849500656;0.0
16.899499893;0.0
16.94949913;0.0
16.999500275;0.0
17.049499512;0.0
17.099500656;0.0
17.149499893;-0.017343852669
17.19949913;-0.052275374532
17.249500275;-0.1054572314
17.299499512;-0.14453125
17.349500656;-0.18123850226
17.399499893;-0.21424144506
17.44949913;-0.22651255131
17.499500275;-0.24171869457
17.549499512;-0.24393934011
17.599500656;-0.23753468692
17.649499893;-0.21512971818
17.69949913;-0.19316911697
17.749500275;-0.15626071393
17.799499512;-0.11988885701
17.849500656;-0.079664707184
17.899499893;-0.047235988081
17.94949913;-0.019837560132
17.999500275;-0.0062902630307
18.049499512;-0.0028844980989
18.099500656;-0.0009582710336
18.149499893;-0.0096897166222
18.19949913;-0.028266243637
18.249500275;-0.050426930189
18.299499512;-0.085891343653
18.349500656;-0.12383532524
18.399499893;-0.16475977004
18.44949913;-0.20415835083
18.499500275;-0.2535430491
18.549499512;-0.29385152459
18.599500656;-0.33112031221
18.649499893;-0.35964912176
18.69949913;-0.37162554264
18.749500275;-0.37026590109
18.799499512;-0.36012136936
18.849500656;-0.33571228385
18.899499893;-0.30165073276
18.94949913;-0.25013968349
18.999500275;-0.19534094632
19.049499512;-0.13037653267
19.099500656;-0.070476412773
19.149499893;-0.014969988726
19.19949913;0.0
19.249500275;0.0
19.299499512;0.0
19.349500656;0.0
19.399999619;0.0
19.450000763;0.0
19.5;0.0
19.549999237;0.0
19.600000381;0.0
19.649999619;0.0
19.700000763;0.0
19.75;0.0
19.799999237;0.0
19.850000381;0.0
19.899999619;0.0
19.950000763;0.0
20.0;0.0
20.049999237;0.0
20.100000381;-0.00018483695749
20.149999619;-0.002817517845
20.200000763;0.0
20.25;0.0
20.299999237;0.0
20.350000381;0.0
20.399999619;0.0
20.450000763;0.0
20.5;0.0
20.549999237;0.0
20.600000381;0.0
20.649999619;0.0
20.700000763;0.0
20.75;0.0
20.799999237;0.0
20.850000381;0.0
20.899999619;0.0
20.950000763;0.0
21.0;0.0
21.049999237;0.0
21.100000381;0.0
21.149999619;0.0
21.200000763;0.0
21.25;-4.7146917495e-05
21.299999237;-0.0081202210858
21.350000381;-0.00068725441815
21.399999619;-0.0075867576525
21.450000763;-0.011480811983
21.5;-0.00013022065104
21.549999237;0.0
21.600000381;0.0
21.649999619;0.0
21.700000763;0.0
21.75;0.0
21.799999237;0.0
21.850000381;0.0
21.899999619;0.0
21.950000763;0.0
22.0;0.0
22.049999237;0.0
22.100000381;0.0
22.149999619;0.0
22.200000763;0.0
22.25;0.0
22.299999237;0.0
22.350000381;0.0
22.399999619;0.0
22.450000763;-2.7967880669e-05
22.5;-0.013620291837
22.549999237;-0.021738780662
22.600000381;-0.039418641478
22.649999619;-0.045606225729
22.700000763;-0.043540347368
22.75;-0.033992305398
22.799999237;-0.0053020031191
22.850000381;0.0
22.899999619;0.0
22.950000763;0.0
23.0;0.0
23.049999237;0.0
23.100000381;0.0
23.149999619;0.0
23.200000763;0.0
23.25;0.0
23.299999237;0.0
23.350000381;0.0
23.399999619;0.0
23.450000763;0.0
23.5;0.0
23.549999237;0.0
23.600000381;0.0
23.649999619;0.0
23.700000763;0.0
23.75;0.0
23.799999237;0.0
23.850000381;0.0
23.899999619;0.0
23.950000763;0.0
24.0;0.0
24.049999237;0.0
24.100000381;0.0
24.149999619;0.0
24.200000763;0.0
24.25;0.0
24.299999237;0.0
24.350000381;0.0
24.399999619;0.0
24.450000763;0.0
24.5;0.0
24.549999237;0.0
24.600000381;0.0
24.649999619;0.0
24.700000763;0.0
24.75;0.0
24.799999237;0.0
24.850000381;0.0
24.899999619;0.0
24.950000763;0.0
25.0;0.0
25.049999237;0.0
25.100000381;0.0
25.149999619;0.0
25.200000763;0.0
25.25;0.0
25.299999237;0.0
25.350000381;0.0
25.399999619;0.0
25.450000763;0.0
25.5;0.0
25.549999237;0.0
25.600000381;0.0
25.649999619;0.0
25.700000763;0.0
25.75;0.0
25.799999237;0.0
25.850000381;0.0
25.899999619;0.0
25.950000763;0.0
26.0;0.0
26.049999237;0.0
26.100000381;0.0
26.149999619;0.0
26.200000763;0.0
26.25;0.0
26.299999237;0.0
26.350000381;0.0
26.399999619;0.0
26.450000763;0.0
26.5;0.0
26.549999237;0.0
26.600000381;0.0
26.649999619;0.0
26.700000763;0.0
26.75;0.0
26.799999237;0.0
26.850000381;0.0
26.899999619;0.0
26.950000763;0.0
27.0;0.0
27.049999237;0.0
27.100000381;0.0
27.149999619;0.0
27.200000763;0.0
27.25;0.0
27.299999237;0.0
27.350000381;0.0
27.399999619;0.0
27.450000763;0.0
27.5;0.0
27.549999237;0.0
27.600000381;0.0
27.649999619;0.0
27.700000763;0.0
27.75;0.0
27.799999237;0.0
27.850000381;0.0
27.899999619;0.0
27.950000763;0.0
28.0;0.0
28.049999237;0.0
28.100000381;0.0
28.149999619;0.0
28.200000763;0.0
28.25;0.0
28.299999237;0.0
28.350000381;0.0
28.399999619;0.0
28.450000763;0.0
28.5;0.0
28.549999237;0.0
28.600000381;0.0
28.649999619;0.0
28.700000763;0.0
28.75;0.0
28.799999237;0.0
28.850000381;0.0
28.899999619;0.0
28.950000763;0.0
29.0;0.0
29.049999237;0.0
29.100000381;0.0
29.149999619;0.0
29.200000763;0.0
29.25;0.0
29.299999237;-0.011636082083
29.350000381;-0.0029933077749
29.399999619;0.0
29.450000763;0.0
29.5;0.0
29.549999237;0.0
29.600000381;0.0
29.649999619;0.0
29.700000763;0.0
29.75;0.0
29.799999237;0.0
29.850000381;0.0
29.899999619;0.0
29.950000763;0.0
30.0;0.0
30.049999237;0.0
30.100000381;0.0
30.149999619;0.0
30.200000763;0.0
30.25;0.0
30.299999237;0.0
30.350000381;-0.016095943749
30.399999619;-0.059297055006
30.450000763;-0.07133988291
30.5;-0.10063625127
30.549999237;-0.1105896309
30.600000381;-0.10517584532
30.649999619;-0.097753480077
30.700000763;-0.097965039313
30.75;-0.082553930581
30.799999237;-0.063905663788
30.850000381;-0.036004301161
30.899999619;-0.0078238705173
30.950000763;0.0
31.0;0.0
31.049999237;0.0
31.100000381;0.0
31.149999619;0.0
31.200000763;0.0
31.25;0.0
31.299999237;0.0
31.350000381;0.0
31.399999619;0.0
31.450000763;0.0
31.5;0.0
31.549999237;0.0
31.600000381;0.0
31.649999619;0.0
31.700000763;0.0
31.75;0.0
31.799999237;-0.016907650977
31.850000381;-0.046117734164
31.899999619;-0.053971108049
31.950000763;-0.071254700422
32.0;-0.067735008895
32.049999237;-0.056423455477
32.099998474;-0.03524203226
32.150001526;-0.019148731604
32.200000763;-0.0030819445383
32.25;0.0
32.299999237;0.0
32.349998474;0.0
32.400001526;0.0
32.450000763;0.0
32.5;0.0
32.549999237;0.0
32.599998474;0.0
32.650001526;-0.0035597940441
32.700000763;-0.03558049351
32.75;-0.055012308061
32.799999237;-0.09739074111
32.849998474;-0.13450047374
32.900001526;-0.17331877351
32.950000763;-0.2181930244
33.0;-0.24273356795
33.049999237;-0.26486417651
33.099998474;-0.2699226737
33.150001526;-0.28096106648
33.200000763;-0.28596442938
33.25;-0.29220753908
33.299999237;-0.29032579064
33.349998474;-0.28453215957
33.400001526;-0.27381399274
33.450000763;-0.25934788585
33.5;-0.23900862038
33.549999237;-0.21520683169
33.599998474;-0.19994732738
33.650001526;-0.19045598805
33.700000763;-0.19312904775
33.75;-0.20432253182
33.799999237;-0.22074145079
33.849998474;-0.2282577157
33.900001526;-0.2502938509
33.950000763;-0.25769850612
34.0;-0.27091604471
34.049999237;-0.27761295438
34.099998474;-0.29749754071
34.150001526;-0.31645822525
34.200000763;-0.35117843747
34.25;-0.38128519058
34.299999237;-0.41040024161
34.349998474;-0.42949470878
34.400001526;-0.44120681286
34.450000763;-0.43690705299
34.5;-0.42788302898
34.549999237;-0.40452709794
34.599998474;-0.39372101426
34.650001526;-0.37499478459
34.700000763;-0.36033573747
34.75;-0.3347568512
34.799999237;-0.31018024683
34.849998474;-0.28257530928
34.900001526;-0.27187633514
34.950000763;-0.26983192563
35.0;-0.27869790792
35.049999237;-0.28564670682
35.099998474;-0.30679836869
35.150001526;-0.31125360727
35.200000763;-0.33741682768
35.25;-0.35023367405
35.299999237;-0.37536755204
35.349998474;-0.39617320895
35.400001526;-0.41093200445
35.450000763;-0.42527660728
35.5;-0.43469533324
35.549999237;-0.4487452805
35.599998474;-0.45324087143
35.650001526;-0.4604305923
35.700000763;-0.46501746774
35.75;-0.46986010671
35.799999237;-0.46735370159
35.849998474;-0.46199259162
35.900001526;-0.45400378108
35.950000763;-0.45066505671
36.0;-0.44939059019
36.049999237;-0.45099028945
36.099998474;-0.44879928231
36.150001526;-0.44727432728
36.200000763;-0.4394505322
36.25;-0.4300442636
36.299999237;-0.42545834184
36.349998474;-0.42372012138
36.400001526;-0.43173754215
36.450000763;-0.43989625573
36.5;-0.45908412337
36.549999237;-0.47759360075
36.599998474;-0.50469523668
36.650001526;-0.52314573526
36.700000763;-0.53779119253
36.75;-0.56289166212
36.799999237;-0.58254784346
36.849998474;-0.61103987694
36.900001526;-0.63014227152
36.950000763;-0.64488112926
37.0;-0.65282261372
37.049999237;-0.65526646376
37.099998474;-0.65106904507
37.150001526;-0.64035695791
37.200000763;-0.62644928694
37.25;-0.61100882292
37.299999237;-0.59660851955
37.349998474;-0.58055984974
37.400001526;-0.56914144754
37.450000763;-0.56353825331
37.5;-0.56635099649
37.549999237;-0.57606786489
37.599998474;-0.59093469381
37.650001526;-0.60591191053
37.700000763;-0.6223744154
37.75;-0.63924974203
37.799999237;-0.65275496244
37.849998474;-0.66523844004
37.900001526;-0.67999780178
37.950000763;-0.68699634075
38.0;-0.69219273329
38.049999237;-0.70669639111
38.099998474;-0.70641684532
38.149501801;-0.72178602219
38.199501038;-0.72006189823
38.249500275;-0.72712737322
38.299499512;-0.72991842031
38.349498749;-0.72347086668
38.399501801;-0.72153186798
38.449501038;-0.7063601613
38.499500275;-0.69281041622
38.549499512;-0.67377454042
38.599498749;-0.6477253437
38.649501801;-0.62368375063
38.699501038;-0.60496580601
38.749500275;-0.59693062305
38.799499512;-0.58749961853
38.849498749;-0.57743936777
38.899501801;-0.57522809505
38.949501038;-0.57420057058
38.999500275;-0.59282135963
39.049499512;-0.62972068787
39.099498749;-0.67285859585
39.149501801;-0.72288262844
39.199501038;-0.76871532202
39.249500275;-0.80651992559
39.299499512;-0.83731377125
39.349498749;-0.86293178797
39.399501801;-0.88513416052
39.449501038;-0.89646661282
39.499500275;-0.9147862196
39.549499512;-0.9163724184
39.599498749;-0.91526252031
39.649501801;-0.90313535929
39.699501038;-0.88599354029
39.749500275;-0.86606162786
39.799499512;-0.83805775642
39.849498749;-0.81674188375
39.899501801;-0.78718346357
39.949501038;-0.76633387804
39.999500275;-0.73486846685
40.049499512;-0.70937222242
40.099498749;-0.67666840553
40.149501801;-0.63647979498
40.199501038;-0.59733593464
40.249500275;-0.55364453793
40.299499512;-0.49598363042
40.349498749;-0.4329456687
40.399501801;-0.35356277227
40.449501038;-0.26693803072
40.499500275;-0.18648487329
40.549499512;-0.098108761013
40.599498749;-0.014015281573
40.649501801;0.0
40.699501038;0.0
40.749500275;0.0
40.799499512;0.0
40.849498749;0.0
40.899501801;0.0
40.949501038;0.0
40.999500275;0.0
41.049499512;0.0
41.099498749;0.0
41.149501801;0.0
41.199501038;0.0
41.249500275;0.0
41.299499512;0.0
41.349498749;0.0
41.399501801;0.0
41.449501038;0.0
41.499500275;0.0
41.549499512;0.0
41.599498749;0.0
41.649501801;0.0
41.699501038;0.0
41.749500275;0.0
41.799499512;0.0
41.849498749;0.0
41.899501801;0.0
41.949501038;0.0
41.999500275;0.0
42.049499512;0.0
42.099498749;0.0
42.149501801;0.0
42.199501038;0.0
42.249500275;0.0
