Time [s];Force [kN]
0.0;0.0
0.049499999732;0.0
0.099500000477;0.0
0.1494999975;0.0
0.19949999452;0.0
0.24950000644;0.0
0.29949998856;0.0
0.34950000048;0.0
0.3995000124;0.0
0.44949999452;0.0
0.49950000644;-0.050534561276
0.55000001192;-0.37337955832
0.60000002384;-0.86766946316
0.64999997616;-1.2942847013
0.69999998808;-1.6098744869
0.75;-1.8370070457
0.80000001192;-2.0644600391
0.85000002384;-2.1900053024
0.89999997616;-2.2077524662
0.94999998808;-1.9301825762
1.0;-1.576800704
1.0499999523;-1.2195609808
1.1000000238;-0.90434008837
1.1499999762;-0.52956914902
1.2000000477;-0.35980296135
1.25;-0.080210469663
1.2999999523;-9.8607626569e-05
1.3500000238;0.0
1.3999999762;0.0
1.4500000477;0.0
1.5;0.0
1.5499999523;0.0
1.6000000238;0.0
1.6499999762;0.0
1.7000000477;0.0
1.75;0.0
1.7999999523;-0.0033716796897
1.8500000238;-0.26575782895
1.8999999762;-0.52275389433
1.9500000477;-1.0366864204
2.0;-1.4710841179
2.0499999523;-1.7918567657
2.0999999046;-1.8027484417
2.1500000954;-1.5030527115
2.2000000477;-1.2129973173
2.25;-0.90404653549
2.2999999523;-0.75541061163
2.3499999046;-0.7031404376
2.4000000954;-0.62690478563
2.4500000477;-0.41605344415
2.4995000362;-0.13853812218
2.5494999886;-0.14342053235
2.5994999409;0.0
2.6494998932;0.0
2.6995000839;0.0
2.7495000362;0.0
2.7994999886;0.0
2.8494999409;0.0
2.8994998932;0.0
2.9495000839;0.0
2.9995000362;0.0
3.0494999886;0.0
3.0994999409;-0.049556329846
3.1494998932;-0.14600722492
3.1995000839;-0.49055549502
3.2495000362;-0.65913385153
3.2994999886;-0.88565450907
3.3494999409;-0.9527375102
3.3994998932;-1.0898596048
3.4495000839;-1.145072937
3.4995000362;-1.1385787725
3.5494999886;-1.0381962061
3.5994999409;-0.8682101965
3.6494998932;-0.7794060111
3.6995000839;-0.45778819919
3.7495000362;-0.32069206238
3.7994999886;-0.085672661662
3.8494999409;0.0
3.8994998932;0.0
3.9495000839;0.0
3.9995000362;0.0
4.0494999886;0.0
4.0995001793;0.0
4.1494998932;0.0
4.1995000839;0.0
4.2494997978;0.0
4.2994999886;0.0
4.3495001793;-0.051322292536
4.3994998932;-0.12788160145
4.4495000839;-0.30319112539
4.4994997978;-0.48507988453
4.5494999886;-0.67988860607
4.5995001793;-0.78768885136
4.6494998932;-0.90696042776
4.6995000839;-0.9024091959
4.7494997978;-0.99111682177
4.7994999886;-0.89774662256
4.8495001793;-0.86134761572
4.8994998932;-0.73635601997
4.9499998093;-0.58868551254
5.0;-0.4459733665
5.0500001907;-0.28584602475
5.0999999046;-0.092195048928
5.1500000954;-0.0036711846478
5.1999998093;-0.0012533973204
5.25;0.0
5.3000001907;0.0
5.3499999046;0.0
5.4000000954;0.0
5.4499998093;0.0
5.5;0.0
5.5500001907;0.0
5.5999999046;-0.0084262946621
5.6500000954;-0.21368822455
5.6999998093;-0.3080842793
5.75;-0.53972804546
5.8000001907;-0.65975469351
5.8499999046;-0.83783167601
5.9000000954;-0.95371037722
5.9499998093;-1.0171858072
6.0;-1.0915355682
6.0500001907;-1.0500110388
6.0999999046;-1.0192455053
6.1500000954;-0.91605824232
6.1999998093;-0.76978814602
6.25;-0.64258259535
6.3000001907;-0.45892772079
6.3499999046;-0.32946494222
6.4000000954;-0.19556683302
6.4499998093;-0.084786139429
6.5;-0.0092472489923
6.5500001907;0.0
6.5999999046;0.0
6.6500000954;0.0
6.6999998093;0.0
6.75;0.0
6.8000001907;-0.020118394867
6.8499999046;-0.13471268117
6.9000000954;-0.15792553127
6.9499998093;-0.32312458754
7.0;-0.42489644885
7.0500001907;-0.56229996681
7.0999999046;-0.72814875841
7.1500000954;-0.78417104483
7.1999998093;-0.82333219051
7.25;-0.89756304026
7.3000001907;-0.81004649401
7.3499999046;-0.79030799866
7.4000000954;-0.65953022242
7.4499998093;-0.5534081459
7.5;-0.40236321092
7.5500001907;-0.29811266065
7.5999999046;-0.12439341843
7.6500000954;-0.058742001653
7.6999998093;-0.005931252148
7.75;0.0
7.8000001907;0.0
7.8499999046;0.0
7.9000000954;0.0
7.9499998093;0.0
8.0;0.0
8.0500001907;-0.029621627182
8.1000003815;-0.10818743706
8.1499996185;-0.25512495637
8.1999998093;-0.40956872702
8.25;-0.59692448378
8.3000001907;-0.70135051012
8.3500003815;-0.82358592749
8.3999996185;-0.90301686525
8.4499998093;-0.95661759377
8.5;-0.93507879972
8.5500001907;-0.91995757818
8.6000003815;-0.82747012377
8.6499996185;-0.71727913618
8.6999998093;-0.61625576019
8.75;-0.45407792926
8.8000001907;-0.33978489041
8.8500003815;-0.19201526046
8.8999996185;-0.11017497629
8.9499998093;-0.011392295361
9.0;0.0
9.0500001907;0.0
9.1000003815;0.0
9.1499996185;0.0
9.1999998093;-0.030756225809
9.25;-0.085874736309
9.3000001907;-0.1950699985
9.3500003815;-0.36085060239
9.3999996185;-0.49119126797
9.4495000839;-0.66955453157
9.4995002747;-0.79314935207
9.5495004654;-0.92149072886
9.5994997025;-1.0199978352
9.6494998932;-1.0806558132
9.6995000839;-1.1097102165
9.7495002747;-1.092266798
9.7995004654;-1.0563963652
9.8494997025;-0.96341133118
9.8994998932;-0.86112582684
9.9495000839;-0.74101644754
9.9995002747;-0.59949594736
10.049500465;-0.49078336358
10.099499702;-0.34836366773
10.149499893;-0.26326113939
10.199500084;-0.19260910153
10.249500275;-0.14705918729
10.299500465;-0.14483618736
10.349499702;-0.17253805697
10.399499893;-0.24690108001
10.449500084;-0.32654309273
10.499500275;-0.44808417559
10.549500465;-0.56221997738
10.599499702;-0.69377821684
10.649499893;-0.80101788044
10.699500084;-0.90688151121
10.749500275;-0.97780942917
10.799500465;-1.0355603695
10.849499702;-1.0671098232
10.899499893;-1.0688148737
10.949500084;-1.0327925682
10.999500275;-0.96812582016
11.049500465;-0.86144185066
11.099499702;-0.73840141296
11.149499893;-0.58946448565
11.199500084;-0.41700413823
11.249500275;-0.24706576765
11.299500465;-0.13308356702
11.349499702;-0.046895340085
11.399499893;-0.010049976408
11.449500084;0.0
11.499500275;0.0
11.549500465;0.0
11.599499702;-0.030838400126
11.649499893;-0.072175458074
11.699500084;-0.11081270874
11.749500275;-0.19646853209
11.799500465;-0.27780556679
11.849499702;-0.36680364609
11.899499893;-0.47679206729
11.949500084;-0.56179493666
11.999500275;-0.64279729128
12.049500465;-0.69474971294
12.099499702;-0.70845037699
12.149499893;-0.70063281059
12.199500084;-0.66788929701
12.249500275;-0.60644948483
12.299500465;-0.53529447317
12.349499702;-0.43483048677
12.399499893;-0.34511503577
12.449500084;-0.24455344677
12.499500275;-0.15878129005
12.549500465;-0.10386370122
12.599499702;-0.046407788992
12.649499893;-0.028884768486
12.699500084;-0.016297673807
12.749500275;-0.018294693902
12.799500465;-0.037337377667
12.849499702;-0.071496851742
12.899499893;-0.1223435998
12.949500084;-0.19506758451
12.999500275;-0.30125725269
13.049500465;-0.38733905554
13.099499702;-0.51922982931
13.149499893;-0.58840608597
13.199500084;-0.68636107445
13.249500275;-0.72880738974
13.299500465;-0.76801562309
13.349499702;-0.77723067999
13.399499893;-0.76294249296
13.449500084;-0.72124046087
13.499500275;-0.66136056185
13.549500465;-0.57639294863
13.599499702;-0.48711434007
13.649499893;-0.39171597362
13.699500084;-0.30667951703
13.749500275;-0.22404830158
13.799500465;-0.17327581346
13.849499702;-0.13037906587
13.899499893;-0.1139665097
13.949500084;-0.12585960329
13.999500275;-0.15940700471
14.049500465;-0.22245459259
14.099499702;-0.30601379275
14.149499893;-0.41124948859
14.199500084;-0.51611161232
14.249500275;-0.63737875223
14.299500465;-0.73630207777
14.349499702;-0.82973814011
14.399499893;-0.89590573311
14.449500084;-0.94947630167
14.499500275;-0.96875697374
14.549500465;-0.96555054188
14.599499702;-0.9359639883
14.649499893;-0.89605104923
14.699500084;-0.83805823326
14.749500275;-0.77049946785
14.799500465;-0.68173611164
14.849499702;-0.60171335936
14.899499893;-0.50955033302
14.949500084;-0.42663517594
14.999500275;-0.35243800282
15.049500465;-0.29712688923
15.099499702;-0.24957329035
15.149499893;-0.22635345161
15.199500084;-0.22026570141
15.249500275;-0.2090369612
15.299500465;-0.24125526845
15.349499702;-0.24215584993
15.399499893;-0.2738660872
15.449500084;-0.28700566292
15.499500275;-0.32863920927
15.549500465;-0.347468853
15.599499702;-0.37627986073
15.649499893;-0.39686211944
15.699500084;-0.41429212689
15.749500275;-0.42940405011
15.799500465;-0.43175622821
15.849499702;-0.39908576012
15.899499893;-0.36092856526
15.949500084;-0.29691231251
15.999500275;-0.22949892282
16.049499512;-0.17442145944
16.099500656;-0.10813970864
16.149499893;-0.063277475536
16.19949913;-0.02290285565
16.249500275;-0.0019497750327
16.299499512;0.0
16.349500656;0.0
16.399499893;0.0
16.44949913;0.0
16.499500275;-0.015939891338
16.549499512;-0.056966219097
16.599500656;-0.096451058984
16.649499893;-0.16673961282
16.69949913;-0.2181108743
16.749500275;-0.28797739744
16.799499512;-0.34807217121
16.849500656;-0.40246790648
16.899499893;-0.43808665872
16.94949913;-0.45553538203
16.999500275;-0.45548859239
17.049499512;-0.43308070302
17.099500656;-0.39563706517
17.149499893;-0.35072663426
17.19949913;-0.29022154212
17.249500275;-0.23102110624
17.299499512;-0.16680650413
17.349500656;-0.10914439708
17.399499893;-0.056586612016
17.44949913;-0.023008590564
17.499500275;-0.0019516214961
17.549499512;0.0
17.599500656;0.0
17.649499893;0.0
17.69949913;-0.019726332277
17.749500275;-0.051052197814
17.799499512;-0.10216550529
17.849500656;-0.1703183651
17.899499893;-0.24416035414
17.94949913;-0.3191473186
17.999500275;-0.40740129352
18.049499512;-0.46681329608
18.099500656;-0.53247439861
18.149499893;-0.55486440659
18.19949913;-0.58213806152
18.249500275;-0.5654130578
18.299499512;-0.55257254839
18.349500656;-0.50565177202
18.399499893;-0.45983237028
18.44949913;-0.40485465527
18.499500275;-0.34159311652
18.549499512;-0.28518339992
18.599500656;-0.23006772995
18.649499893;-0.17957061529
18.69949913;-0.15429447591
18.749500275;-0.13287572563
18.799499512;-0.13439171016
18.849500656;-0.15094229579
18.899499893;-0.17865704
18.94949913;-0.21404609084
18.999500275;-0.26623436809
19.049499512;-0.3184504807
19.099500656;-0.3772829175
19.149499893;-0.42972692847
19.19949913;-0.47108346224
19.249500275;-0.49775648117
19.299499512;-0.50799500942
19.349500656;-0.49094817042
19.399999619;-0.45821195841
19.450000763;-0.40673604608
19.5;-0.32739514112
19.549999237;-0.25781548023
19.600000381;-0.14917738736
19.649999619;-0.063780255616
19.700000763;-0.0068792221136
19.75;0.0
19.799999237;0.0
19.850000381;0.0
19.899999619;0.0
19.950000763;0.0
20.0;0.0
20.049999237;0.0
20.100000381;0.0
20.149999619;0.0
20.200000763;0.0
20.25;-0.00012035953841
20.299999237;-0.024350849912
20.350000381;-0.029963515699
20.399999619;-0.068058423698
20.450000763;-0.12051039189
20.5;-0.12064445019
20.549999237;-0.14237432182
20.600000381;-0.16624560952
20.649999619;-0.15212316811
20.700000763;-0.14892587066
20.75;-0.1402566582
20.799999237;-0.1147473231
20.850000381;-0.094104886055
20.899999619;-0.060516357422
20.950000763;-0.041461609304
21.0;-0.007827360183
21.049999237;0.0
21.100000381;0.0
21.149999619;0.0
21.200000763;0.0
21.25;0.0
21.299999237;0.0
21.350000381;0.0
21.399999619;0.0
21.450000763;0.0
21.5;0.0
21.549999237;-0.010371815413
21.600000381;-0.043286345899
21.649999619;-0.066350184381
21.700000763;-0.099004946649
21.75;-0.12629403174
21.799999237;-0.14165636897
21.850000381;-0.15434898436
21.899999619;-0.16510805488
21.950000763;-0.16776940227
22.0;-0.1563141793
22.049999237;-0.14331169426
22.100000381;-0.11753375083
22.149999619;-0.092700123787
22.200000763;-0.072206288576
22.25;-0.054413318634
22.299999237;-0.03441170603
22.350000381;-0.022986603901
22.399999619;-0.010624649003
22.450000763;-0.00018556618306
22.5;0.0
22.549999237;0.0
22.600000381;0.0
22.649999619;-0.0030815321952
22.700000763;-0.01297199633
22.75;-0.01989066042
22.799999237;-0.044819906354
22.850000381;-0.064205572009
22.899999619;-0.079012461007
22.950000763;-0.08584588021
23.0;-0.10663948953
23.049999237;-0.081477224827
23.100000381;-0.083491154015
23.149999619;-0.063202746212
23.200000763;-0.019721202552
23.25;-0.0003075368877
23.299999237;0.0
23.350000381;0.0
23.399999619;0.0
23.450000763;0.0
23.5;0.0
23.549999237;0.0
23.600000381;0.0
23.649999619;0.0
23.700000763;0.0
23.75;0.0
23.799999237;0.0
23.850000381;0.0
23.899999619;0.0
23.950000763;0.0
24.0;0.0
24.049999237;0.0
24.100000381;0.0
24.149999619;0.0
24.200000763;0.0
24.25;-0.0021922220476
24.299999237;-7.9205434304e-05
24.350000381;-0.0066522732377
24.399999619;-0.021608296782
24.450000763;-0.015105415136
24.5;-0.0085948612541
24.549999237;-0.013357843272
24.600000381;-0.008931202814
24.649999619;-0.00020985273295
24.700000763;0.0
24.75;0.0
24.799999237;0.0
24.850000381;0.0
24.899999619;0.0
24.950000763;0.0
25.0;0.0
25.049999237;0.0
25.100000381;0.0
25.149999619;0.0
25.200000763;0.0
25.25;0.0
25.299999237;0.0
25.350000381;0.0
25.399999619;0.0
25.450000763;0.0
25.5;-0.0059824241325
25.549999237;-0.028285989538
25.600000381;-0.029713179916
25.649999619;-0.057318579406
25.700000763;-0.064759500325
25.75;-0.060651175678
25.799999237;-0.052868235856
25.850000381;-0.05941208452
25.899999619;-0.036836862564
25.950000763;-0.02712725848
26.0;-0.021397769451
26.049999237;-0.013881378807
26.100000381;-0.0024590895046
26.149999619;-0.0014968150062
26.200000763;0.0
26.25;0.0
26.299999237;0.0
26.350000381;0.0
26.399999619;0.0
26.450000763;0.0
26.5;0.0
26.549999237;0.0
26.600000381;0.0
26.649999619;0.0
26.700000763;0.0
26.75;-0.0048006866127
26.799999237;-0.0049402830191
26.850000381;-0.00066984799923
26.899999619;-0.00068011577241
26.950000763;0.0
27.0;0.0
27.049999237;0.0
27.100000381;0.0
27.149999619;0.0
27.200000763;0.0
27.25;0.0
27.299999237;0.0
27.350000381;0.0
27.399999619;0.0
27.450000763;0.0
27.5;0.0
27.549999237;0.0
27.600000381;0.0
27.649999619;0.0
27.700000763;0.0
27.75;0.0
27.799999237;0.0
27.850000381;0.0
27.899999619;0.0
27.950000763;0.0
28.0;0.0
28.049999237;0.0
28.100000381;-0.00047740672017
28.149999619;-2.694321779e-07
28.200000763;-0.0026148243342
28.25;-0.0078077423386
28.299999237;-0.0028865074273
28.350000381;-1.2178373936e-06
28.399999619;0.0
28.450000763;0.0
28.5;0.0
28.549999237;0.0
28.600000381;0.0
28.649999619;0.0
28.700000763;0.0
28.75;0.0
28.799999237;0.0
28.850000381;0.0
28.899999619;0.0
28.950000763;0.0
29.0;0.0
29.049999237;0.0
29.100000381;0.0
29.149999619;0.0
29.200000763;0.0
29.25;-0.00016672043421
29.299999237;-0.011850230396
29.350000381;-0.030979929492
29.399999619;-0.051286462694
29.450000763;-0.070260971785
29.5;-0.089762970805
29.549999237;-0.098806343973
29.600000381;-0.093820475042
29.649999619;-0.089613869786
29.700000763;-0.077992588282
29.75;-0.066492140293
29.799999237;-0.060186039656
29.850000381;-0.051410738379
29.899999619;-0.04470775649
29.950000763;-0.039412107319
30.0;-0.02873919718
30.049999237;-0.018926423043
30.100000381;-0.013750398532
30.149999619;-0.011158492416
30.200000763;-0.012235873379
30.25;-0.016295198351
30.299999237;-0.02448387444
30.350000381;-0.031818196177
30.399999619;-0.049342956394
30.450000763;-0.067496143281
30.5;-0.082401275635
30.549999237;-0.1032037437
30.600000381;-0.12401201576
30.649999619;-0.13391245902
30.700000763;-0.1387296617
30.75;-0.14220806956
30.799999237;-0.12944470346
30.850000381;-0.11289363354
30.899999619;-0.098663248122
30.950000763;-0.069498382509
31.0;-0.034516438842
31.049999237;-0.015056221746
31.100000381;-0.00053736072732
31.149999619;0.0
31.200000763;0.0
31.25;0.0
31.299999237;0.0
31.350000381;0.0
31.399999619;0.0
31.450000763;0.0
31.5;0.0
31.549999237;0.0
31.600000381;0.0
31.649999619;0.0
31.700000763;0.0
31.75;0.0
31.799999237;0.0
31.850000381;-0.0031610047445
31.899999619;-0.01260995958
31.950000763;-0.032881721854
32.0;-0.061711497605
32.049999237;-0.078282147646
32.099998474;-0.083376400173
32.150001526;-0.096251033247
32.200000763;-0.090510398149
32.25;-0.079555787146
32.299999237;-0.074290536344
32.349998474;-0.058364011347
32.400001526;-0.039280965924
32.450000763;-0.030134884641
32.5;-0.015027667396
32.549999237;-0.010155875236
32.599998474;-0.0082534458488
32.650001526;-0.011490846984
32.700000763;-0.015969613567
32.75;-0.022306527942
32.799999237;-0.031769298017
32.849998474;-0.037088748068
32.900001526;-0.052609615028
32.950000763;-0.066341556609
33.0;-0.094540648162
33.049999237;-0.11915057898
33.099998474;-0.15275534987
33.150001526;-0.17108814418
33.200000763;-0.20098654926
33.25;-0.20527465641
33.299999237;-0.2181365639
33.349998474;-0.21174319088
33.400001526;-0.20757928491
33.450000763;-0.20439898968
33.5;-0.20731630921
33.549999237;-0.20860342681
33.599998474;-0.21524810791
33.650001526;-0.21293649077
33.700000763;-0.21467512846
33.75;-0.20416675508
33.799999237;-0.1986259371
33.849998474;-0.19162458181
33.900001526;-0.18752430379
33.950000763;-0.19144590199
34.0;-0.19175368547
34.049999237;-0.20612765849
34.099998474;-0.20342624187
34.150001526;-0.21584358811
34.200000763;-0.21058279276
34.25;-0.22845806181
34.299999237;-0.23834365606
34.349998474;-0.26378601789
34.400001526;-0.28856876493
34.450000763;-0.31365311146
34.5;-0.34082728624
34.549999237;-0.3583984971
34.599998474;-0.36906400323
34.650001526;-0.3680203855
34.700000763;-0.36064317822
34.75;-0.34718209505
34.799999237;-0.33501204848
34.849998474;-0.32137531042
34.900001526;-0.30936577916
34.950000763;-0.29189372063
35.0;-0.27519840002
35.049999237;-0.24955025315
35.099998474;-0.23597492278
35.150001526;-0.22578404844
35.200000763;-0.23373515904
35.25;-0.23713286221
35.299999237;-0.25684311986
35.349998474;-0.25230917335
35.400001526;-0.27258473635
35.450000763;-0.2683622539
35.5;-0.29238060117
35.549999237;-0.31004309654
35.599998474;-0.33096301556
35.650001526;-0.3467695713
35.700000763;-0.36872476339
35.75;-0.38114541769
35.799999237;-0.40011432767
35.849998474;-0.40845504403
35.900001526;-0.41857910156
35.950000763;-0.41482827067
36.0;-0.41353115439
36.049999237;-0.40947300196
36.099998474;-0.41623702645
36.150001526;-0.41377133131
36.200000763;-0.42298772931
36.25;-0.42468646169
36.299999237;-0.42571276426
36.349998474;-0.41942694783
36.400001526;-0.41088330746
36.450000763;-0.4003020823
36.5;-0.39679458737
36.549999237;-0.39789393544
36.599998474;-0.40028390288
36.650001526;-0.40686759353
36.700000763;-0.41660484672
36.75;-0.43179178238
36.799999237;-0.4622733593
36.849998474;-0.48478326201
36.900001526;-0.51275861263
36.950000763;-0.52830821276
37.0;-0.54469710588
37.049999237;-0.5575376749
37.099998474;-0.56759160757
37.150001526;-0.56590718031
37.200000763;-0.56484663486
37.25;-0.55708795786
37.299999237;-0.5528691411
37.349998474;-0.54606038332
37.400001526;-0.53568720818
37.450000763;-0.52099794149
37.5;-0.51393407583
37.549999237;-0.50626164675
37.599998474;-0.50448596478
37.650001526;-0.50643539429
37.700000763;-0.51475578547
37.75;-0.52199733257
37.799999237;-0.53676366806
37.849998474;-0.55003881454
37.900001526;-0.56126707792
37.950000763;-0.57019889355
38.0;-0.57136166096
38.049999237;-0.57466304302
38.099998474;-0.58751749992
38.149501801;-0.58785516024
38.199501038;-0.60706472397
38.249500275;-0.6137881279
38.299499512;-0.6193023324
38.349498749;-0.61904239655
38.399501801;-0.616522789
38.449501038;-0.6093428731
38.499500275;-0.60783743858
38.549499512;-0.60336470604
38.599498749;-0.60148894787
38.649501801;-0.59675520658
38.699501038;-0.59016239643
38.749500275;-0.56976097822
38.799499512;-0.5463822484
38.849498749;-0.52211493254
38.899501801;-0.50844883919
38.949501038;-0.49845463037
38.999500275;-0.50020301342
39.049499512;-0.4965954423
39.099498749;-0.50263375044
39.149501801;-0.51461029053
39.199501038;-0.53563541174
