Angle[degree];Secondary axis[mm];Main axis[mm];Out-of-roundness[-];Collapse[mm]
0.0;21.231027861488172;20.63334021568042;0.02859749501472501;0.0020808341736398006
1.0;21.22030700116037;20.667517133698023;0.026449275955136266;0.025670557397248217
2.0;21.212834738124286;20.74250146519095;0.02250398435087726;0.04674762006759181
3.0;21.205073010573102;20.861207789470445;0.016452881392471634;0.06592809576132197
4.0;21.17837210843338;20.984407960809687;0.009280581226013981;0.07558481544081985
5.0;21.149250440942545;21.10872568006733;0.0019389837739337244;0.07769172591736151
6.0;21.134695351400893;21.196376144125;-0.002951234101631945;0.0678632510105146
7.0;21.121835033121243;21.258677556275995;-0.006547489146160345;0.04289121983120481
8.0;21.096199510796723;21.301766176769334;-0.009835725644622557;-0.0063390396596574305
9.0;21.071311850387467;21.315250212479175;-0.011671691966110417;-0.06363215261001187
10.0;21.075574621549535;21.25851380081612;-0.008753070778305581;-0.12997342526993805
11.0;21.06422106470083;21.105221310803316;-0.0019617342632767725;-0.18977764042982415
12.0;21.05301462842135;20.94395992780684;0.005217928259067505;-0.25493990326403093
13.0;21.037223438741897;20.773268130025805;0.012629440608425453;-0.3077835973706371
14.0;21.01658598389446;20.71737364328131;0.014316379933643496;-0.36428624562834955
15.0;20.991603724897587;20.666593678112054;0.015550719941891512;-0.4089118397470415
16.0;20.961315417340998;20.67197681634074;0.013843952200969213;-0.44423409547732007
17.0;20.922276121900154;20.71411576315644;0.009959825777211249;-0.47156577548935275
18.0;20.876811559329298;20.807481114283906;0.0033172461744206483;-0.4735044236421402
19.0;20.83268574256877;20.937508788886895;-0.005015456761632733;-0.46513842782847803
20.0;20.790725702647244;21.044648915454584;-0.012149436019489958;-0.426376865833376
21.0;20.753075355541284;21.16766912640003;-0.019837022529126506;-0.39260396237491335
22.0;20.721114998342102;21.231500751599874;-0.02442037096927139;-0.3098200453376023
23.0;20.682991927464002;21.276087332654576;-0.028377770583281073;-0.23346504706395876
24.0;20.662642031601884;21.29141517282122;-0.030084839292791262;-0.15206176777292768
25.0;20.65673694521439;21.253737310183595;-0.028564610764076778;-0.09224724558929154
26.0;20.63934932519473;21.224850564701036;-0.028014413373507515;-0.06584801601123047
27.0;20.61556015987901;21.15925059954361;-0.026013896634669926;-0.05534115627150271
28.0;20.612546747859383;21.07785063694498;-0.022263343975387404;-0.06063056103764808
29.0;20.605870946698957;20.917931708597862;-0.014931136932961988;-0.08301576402814703
30.0;20.593473521968356;20.76512649025828;-0.008213060683728365;-0.12155823575059799
31.0;20.578687115471986;20.606094461701243;-0.0013113562789118184;-0.16305687277443326
32.0;20.55968433733129;20.535671578991543;0.001148935805729539;-0.21478397551087625
33.0;20.536995641245575;20.47430158124623;0.002999715789442327;-0.2563589334145675
34.0;20.51627183723108;20.495715323753927;0.0009835652381413045;-0.3043901711670145
35.0;20.499702689980452;20.492958638823954;0.0003226818735166937;-0.3249167311936034
36.0;20.48754289469578;20.624278549895717;-0.006542375846887014;-0.35791254644306036
37.0;20.484278874192967;20.71431986449978;-0.0110067459476945;-0.33803747568904186
38.0;20.479571431337675;20.82919682038846;-0.016728487514391672;-0.3224991356137039
39.0;20.492397559867953;20.89211300469589;-0.01912514090085822;-0.27856078511389626
40.0;20.51993141156703;20.929812376729068;-0.01961152943359036;-0.23761936745950152
41.0;20.539981337740656;20.917703499963718;-0.018072830728376173;-0.16526469362944596
42.0;20.556848543611622;20.89290847633896;-0.016079422618532905;-0.09571421763141075
43.0;20.589043429020037;20.841643774135054;-0.012086140914594102;-0.022371319207550755
44.0;20.61621517703219;20.781115280313955;-0.007889957094821366;0.03568070731014217
45.0;20.637961019293883;20.721474559334904;-0.003995863159857494;0.07798469109082617
46.0;20.653329977783017;20.658801787303616;-0.00026180906797128664;0.10999828234669451
47.0;20.67759733708069;20.599180279702505;0.0037520123147457285;0.13010469717931983
48.0;20.693157046568288;20.546677795359884;0.007008576612842324;0.1341305212309507
49.0;20.70008282993723;20.50940188733483;0.009123490076669946;0.12522245222580608
50.0;20.707554235713836;20.47717094331212;0.011023124038359573;0.11308173921152331
51.0;20.72142424126954;20.47131991095273;0.011966714369225306;0.09232822247715688
52.0;20.718453605312682;20.47763985357445;0.011522189078384384;0.07865132619281212
53.0;20.705449948004244;20.496957021554618;0.00997573810763761;0.06325273127664843
54.0;20.715125337033236;20.52151266102728;0.00926376440219881;0.04670162338413064
55.0;20.71796160294928;20.54240122307585;0.008400018175762265;0.03370631106008659
56.0;20.7062809528839;20.563801827651016;0.0068171830254969;0.018078537353943602
57.0;20.693760070747643;20.574006822260472;0.0057298205017785415;0.012829637477430822
58.0;20.71219484626547;20.590760920393464;0.005810235687655719;-0.0021376989271715274
59.0;20.71860008306436;20.592413781055622;0.006037622105681188;-0.006853213360223265
60.0;20.716257935932745;20.59216261313497;0.005937575253482048;-0.01439412627242831
61.0;20.7227617947254;20.58532982829937;0.006575692173494352;-0.017171019406944765
62.0;20.74127532876475;20.571214319258115;0.008136890407016074;-0.014849828938523046
63.0;20.754600152572138;20.552690303658313;0.009660758321235653;-0.00940683088076355
64.0;20.76679624161362;20.527718636834894;0.011439119845872004;0.004893598712548908
65.0;20.783489891303994;20.51002702721388;0.013084347564120268;0.010690767391302813
66.0;20.798362661129175;20.485311249502804;0.0149785364414532;0.025112721524152448
67.0;20.819256631461442;20.46462715818278;0.016967917381754235;0.03209078446840152
68.0;20.83414624467389;20.450077359524016;0.018376501681812086;0.03786436075746735
69.0;20.853569111927243;20.440038138381833;0.01978617098303394;0.035256675114567315
70.0;20.870903027465523;20.443412991164557;0.020454068722534278;0.0238620339157265
71.0;20.89062203353781;20.440028254650162;0.021559510951562073;0.01233537663903661
72.0;20.907594758156705;20.45252154383921;0.021773838005621726;-0.009143865224395142
73.0;20.92599496464834;20.455250771762792;0.022523645592609925;-0.027466921129907007
74.0;20.944942022494445;20.470427689900156;0.02270403505235833;-0.04992883547856053
75.0;20.963750318905284;20.477385114165127;0.023271062427758688;-0.07024076806006718
76.0;20.98101045156676;20.482830546408064;0.023836359098502242;-0.08240663174438367
77.0;20.998943409281182;20.486080579432883;0.024538891380301374;-0.09323852273730893
78.0;21.01634257458312;20.48048749304883;0.025638999116473216;-0.09079514331048699
79.0;21.03259444117127;20.480009359651135;0.026439477584695465;-0.09453366736205737
80.0;21.047299120504597;20.47144838305186;0.027552666863767283;-0.09137023901422481
81.0;21.06075776771447;20.466424093083454;0.028437017924929028;-0.08874315412820977
82.0;21.07328417812993;20.462674520887976;0.029215773073777766;-0.08913825355762128
83.0;21.08532485464825;20.461564472604852;0.02984499435614339;-0.08832138532434897
84.0;21.094883945777582;20.45856287613019;0.030445984193655056;-0.09252281976002052
85.0;21.10345297226229;20.46102132910531;0.03073835613191285;-0.09112519866422275
86.0;21.113381439706963;20.447326303658876;0.03186866679655917;-0.08034984506261367
87.0;21.121631758857887;20.434400014144675;0.03288190166091926;-0.06580324382576208
88.0;21.127016002449814;20.41264586435957;0.034180389382308406;-0.04860587887592516
88.33;21.12925893120118;20.4068057975966;0.03456713557916641;-0.045786862814651386
